         ID: 

    Comment: 

Scan Type: Normal
Start Angle: 15 deg.
Stop Angle: 90 deg.
Num Points: 3751
Step Size: 0.02 deg.
Datafile Res: 1600 
Scan Rate: 1.000000
Scan Mode: Continuous
Wavelength: 1.540562

Diffractometer Optics:
		Detector:
			 Type: Fixed Slits
			 X2 Configuration: No
		Tube: 
			 Type: Fixed Slits
			 X2 Configuration: No


Axis[0]
	 Selected   : no 
	 Iterative  : no 
	 Start Angle: 0.000000 
	 Stop Angle : 0.000000 
	 Step Size  : 0.000000 
	 Oscillating: no 

Axis[1]
	 Selected   : no 
	 Iterative  : no 
	 Start Angle: 0.000000 
	 Stop Angle : 0.000000 
	 Step Size  : 0.000000 
	 Oscillating: no 

Axis[2]
	 Selected   : no 
	 Iterative  : no 
	 Start Angle: 0.000000 
	 Stop Angle : 0.000000 
	 Step Size  : 0.000000 
	 Oscillating: no 

Axis[3]
	 Selected   : no 
	 Iterative  : no 
	 Start Angle: 0.000000 
	 Stop Angle : 0.000000 
	 Step Size  : 0.000000 
	 Oscillating: no 

Axis[4]
	 Selected   : no 
	 Iterative  : no 
	 Start Angle: 0.000000 
	 Stop Angle : 0.000000 
	 Step Size  : 0.000000 
	 Oscillating: no 

Axis[5]
	 Selected   : no 
	 Iterative  : no 
	 Start Angle: 0.000000 
	 Stop Angle : 0.000000 
	 Step Size  : 0.000000 
	 Oscillating: no 

Axis[6]
	 Selected   : no 
	 Iterative  : no 
	 Start Angle: 0.000000 
	 Stop Angle : 0.000000 
	 Step Size  : 0.000000 
	 Oscillating: no 

Axis[7]
	 Selected   : no 
	 Iterative  : no 
	 Start Angle: 0.000000 
	 Stop Angle : 0.000000 
	 Step Size  : 0.000000 
	 Oscillating: no 

Axis[8]
	 Selected   : no 
	 Iterative  : no 
	 Start Angle: 0.000000 
	 Stop Angle : 0.000000 
	 Step Size  : 0.000000 
	 Oscillating: no 

Axis[9]
	 Selected   : no 
	 Iterative  : no 
	 Start Angle: 0.000000 
	 Stop Angle : 0.000000 
	 Step Size  : 0.000000 
	 Oscillating: no 




	   Deg.    Counts 	   Time 	    ESD   

Range 0
  15.000	       123	    1200	    11.091
  15.020	       101	    1200	    10.050
  15.040	       127	    1200	    11.269
  15.060	        95	    1200	     9.747
  15.080	       124	    1200	    11.136
  15.100	       122	    1200	    11.045
  15.120	       121	    1200	    11.000
  15.140	       120	    1200	    10.954
  15.160	       118	    1200	    10.863
  15.180	       132	    1200	    11.489
  15.200	       108	    1200	    10.392
  15.220	       130	    1200	    11.402
  15.240	       124	    1200	    11.136
  15.260	       128	    1200	    11.314
  15.280	        95	    1200	     9.747
  15.300	       121	    1200	    11.000
  15.320	       109	    1200	    10.440
  15.340	       120	    1200	    10.954
  15.360	       125	    1200	    11.180
  15.380	       111	    1200	    10.536
  15.400	       109	    1200	    10.440
  15.420	       110	    1200	    10.488
  15.440	       127	    1200	    11.269
  15.460	       144	    1200	    12.000
  15.480	       121	    1200	    11.000
  15.500	       121	    1200	    11.000
  15.520	       127	    1200	    11.269
  15.540	       113	    1200	    10.630
  15.560	       114	    1200	    10.677
  15.580	       107	    1200	    10.344
  15.600	       158	    1200	    12.570
  15.620	       107	    1200	    10.344
  15.640	       116	    1200	    10.770
  15.660	       115	    1200	    10.724
  15.680	       107	    1200	    10.344
  15.700	       117	    1200	    10.817
  15.720	       108	    1200	    10.392
  15.740	       100	    1200	    10.000
  15.760	       115	    1200	    10.724
  15.780	       105	    1200	    10.247
  15.800	       124	    1200	    11.136
  15.820	       122	    1200	    11.045
  15.840	       121	    1200	    11.000
  15.860	       134	    1200	    11.576
  15.880	       138	    1200	    11.747
  15.900	       123	    1200	    11.091
  15.920	       126	    1200	    11.225
  15.940	       124	    1200	    11.136
  15.960	       131	    1200	    11.446
  15.980	       103	    1200	    10.149
  16.000	       120	    1200	    10.954
  16.020	        99	    1200	     9.950
  16.040	       128	    1200	    11.314
  16.060	       133	    1200	    11.533
  16.080	       121	    1200	    11.000
  16.100	       115	    1200	    10.724
  16.120	       105	    1200	    10.247
  16.140	       106	    1200	    10.296
  16.160	       133	    1200	    11.533
  16.180	       113	    1200	    10.630
  16.200	       113	    1200	    10.630
  16.220	       104	    1200	    10.198
  16.240	       114	    1200	    10.677
  16.260	       136	    1200	    11.662
  16.280	       104	    1200	    10.198
  16.300	       118	    1200	    10.863
  16.320	       108	    1200	    10.392
  16.340	       133	    1200	    11.533
  16.360	       116	    1200	    10.770
  16.380	       108	    1200	    10.392
  16.400	       118	    1200	    10.863
  16.420	       112	    1200	    10.583
  16.440	       116	    1200	    10.770
  16.460	        85	    1200	     9.220
  16.480	       127	    1200	    11.269
  16.500	       117	    1200	    10.817
  16.520	       129	    1200	    11.358
  16.540	       131	    1200	    11.446
  16.560	       120	    1200	    10.954
  16.580	       112	    1200	    10.583
  16.600	       116	    1200	    10.770
  16.620	       102	    1200	    10.100
  16.640	        94	    1200	     9.695
  16.660	       116	    1200	    10.770
  16.680	       120	    1200	    10.954
  16.700	       115	    1200	    10.724
  16.720	       134	    1200	    11.576
  16.740	       106	    1200	    10.296
  16.760	       106	    1200	    10.296
  16.780	       119	    1200	    10.909
  16.800	       100	    1200	    10.000
  16.820	       109	    1200	    10.440
  16.840	       128	    1200	    11.314
  16.860	       104	    1200	    10.198
  16.880	       118	    1200	    10.863
  16.900	       111	    1200	    10.536
  16.920	       116	    1200	    10.770
  16.940	        99	    1200	     9.950
  16.960	       120	    1200	    10.954
  16.980	       109	    1200	    10.440
  17.000	       111	    1200	    10.536
  17.020	        99	    1200	     9.950
  17.040	       119	    1200	    10.909
  17.060	       106	    1200	    10.296
  17.080	       114	    1200	    10.677
  17.100	       111	    1200	    10.536
  17.120	       114	    1200	    10.677
  17.140	       121	    1200	    11.000
  17.160	       129	    1200	    11.358
  17.180	       114	    1200	    10.677
  17.200	       124	    1200	    11.136
  17.220	       102	    1200	    10.100
  17.240	       113	    1200	    10.630
  17.260	       115	    1200	    10.724
  17.280	       125	    1200	    11.180
  17.300	       115	    1200	    10.724
  17.320	        92	    1200	     9.592
  17.340	       102	    1200	    10.100
  17.360	       118	    1200	    10.863
  17.380	        91	    1200	     9.539
  17.400	       113	    1200	    10.630
  17.420	       111	    1200	    10.536
  17.440	       126	    1200	    11.225
  17.460	       111	    1200	    10.536
  17.480	       122	    1200	    11.045
  17.500	       120	    1200	    10.954
  17.520	       126	    1200	    11.225
  17.540	       107	    1200	    10.344
  17.560	       115	    1200	    10.724
  17.580	       100	    1200	    10.000
  17.600	       104	    1200	    10.198
  17.620	       100	    1200	    10.000
  17.640	        97	    1200	     9.849
  17.660	       110	    1200	    10.488
  17.680	       124	    1200	    11.136
  17.700	       128	    1200	    11.314
  17.720	        87	    1200	     9.327
  17.740	       116	    1200	    10.770
  17.760	        99	    1200	     9.950
  17.780	       115	    1200	    10.724
  17.800	       116	    1200	    10.770
  17.820	       109	    1200	    10.440
  17.840	       103	    1200	    10.149
  17.860	       103	    1200	    10.149
  17.880	       128	    1200	    11.314
  17.900	       101	    1200	    10.050
  17.920	       133	    1200	    11.533
  17.940	       105	    1200	    10.247
  17.960	        98	    1200	     9.899
  17.980	       107	    1200	    10.344
  18.000	       128	    1200	    11.314
  18.020	       132	    1200	    11.489
  18.040	       125	    1200	    11.180
  18.060	       109	    1200	    10.440
  18.080	       108	    1200	    10.392
  18.100	        97	    1200	     9.849
  18.120	       113	    1200	    10.630
  18.140	       112	    1200	    10.583
  18.160	       120	    1200	    10.954
  18.180	       116	    1200	    10.770
  18.200	        95	    1200	     9.747
  18.220	       117	    1200	    10.817
  18.240	       100	    1200	    10.000
  18.260	       116	    1200	    10.770
  18.280	       125	    1200	    11.180
  18.300	       105	    1200	    10.247
  18.320	       112	    1200	    10.583
  18.340	       134	    1200	    11.576
  18.360	       104	    1200	    10.198
  18.380	        95	    1200	     9.747
  18.400	       125	    1200	    11.180
  18.420	       122	    1200	    11.045
  18.440	       116	    1200	    10.770
  18.460	        97	    1200	     9.849
  18.480	       123	    1200	    11.091
  18.500	       123	    1200	    11.091
  18.520	        98	    1200	     9.899
  18.540	       118	    1200	    10.863
  18.560	       116	    1200	    10.770
  18.580	       101	    1200	    10.050
  18.600	       112	    1200	    10.583
  18.620	       118	    1200	    10.863
  18.640	       113	    1200	    10.630
  18.660	       116	    1200	    10.770
  18.680	       107	    1200	    10.344
  18.700	       119	    1200	    10.909
  18.720	       122	    1200	    11.045
  18.740	       109	    1200	    10.440
  18.760	       121	    1200	    11.000
  18.780	       126	    1200	    11.225
  18.800	       103	    1200	    10.149
  18.820	       101	    1200	    10.050
  18.840	       114	    1200	    10.677
  18.860	       114	    1200	    10.677
  18.880	       118	    1200	    10.863
  18.900	        91	    1200	     9.539
  18.920	       103	    1200	    10.149
  18.940	       112	    1200	    10.583
  18.960	       112	    1200	    10.583
  18.980	       121	    1200	    11.000
  19.000	       113	    1200	    10.630
  19.020	        99	    1200	     9.950
  19.040	       105	    1200	    10.247
  19.060	       115	    1200	    10.724
  19.080	       111	    1200	    10.536
  19.100	       112	    1200	    10.583
  19.120	        94	    1200	     9.695
  19.140	        93	    1200	     9.644
  19.160	       110	    1200	    10.488
  19.180	       122	    1200	    11.045
  19.200	       135	    1200	    11.619
  19.220	        92	    1200	     9.592
  19.240	       123	    1200	    11.091
  19.260	        94	    1200	     9.695
  19.280	       105	    1200	    10.247
  19.300	       108	    1200	    10.392
  19.320	        98	    1200	     9.899
  19.340	       103	    1200	    10.149
  19.360	        99	    1200	     9.950
  19.380	       106	    1200	    10.296
  19.400	        97	    1200	     9.849
  19.420	       108	    1200	    10.392
  19.440	       120	    1200	    10.954
  19.460	       120	    1200	    10.954
  19.480	       115	    1200	    10.724
  19.500	       104	    1200	    10.198
  19.520	       111	    1200	    10.536
  19.540	       127	    1200	    11.269
  19.560	       119	    1200	    10.909
  19.580	       104	    1200	    10.198
  19.600	       101	    1200	    10.050
  19.620	       127	    1200	    11.269
  19.640	       110	    1200	    10.488
  19.660	       109	    1200	    10.440
  19.680	       123	    1200	    11.091
  19.700	       118	    1200	    10.863
  19.720	       118	    1200	    10.863
  19.740	       122	    1200	    11.045
  19.760	       117	    1200	    10.817
  19.780	        89	    1200	     9.434
  19.800	       108	    1200	    10.392
  19.820	       100	    1200	    10.000
  19.840	       115	    1200	    10.724
  19.860	       125	    1200	    11.180
  19.880	       101	    1200	    10.050
  19.900	       112	    1200	    10.583
  19.920	        97	    1200	     9.849
  19.940	       112	    1200	    10.583
  19.960	       124	    1200	    11.136
  19.980	       114	    1200	    10.677
  20.000	       113	    1200	    10.630
  20.020	       114	    1200	    10.677
  20.040	       108	    1200	    10.392
  20.060	       118	    1200	    10.863
  20.080	       103	    1200	    10.149
  20.100	       100	    1200	    10.000
  20.120	       110	    1200	    10.488
  20.140	       110	    1200	    10.488
  20.160	       116	    1200	    10.770
  20.180	       112	    1200	    10.583
  20.200	       111	    1200	    10.536
  20.220	       104	    1200	    10.198
  20.240	       121	    1200	    11.000
  20.260	        95	    1200	     9.747
  20.280	       107	    1200	    10.344
  20.300	       116	    1200	    10.770
  20.320	       115	    1200	    10.724
  20.340	       122	    1200	    11.045
  20.360	       125	    1200	    11.180
  20.380	        99	    1200	     9.950
  20.400	        91	    1200	     9.539
  20.420	       111	    1200	    10.536
  20.440	       109	    1200	    10.440
  20.460	       129	    1200	    11.358
  20.480	       109	    1200	    10.440
  20.500	       100	    1200	    10.000
  20.520	        96	    1200	     9.798
  20.540	       115	    1200	    10.724
  20.560	       104	    1200	    10.198
  20.580	        95	    1200	     9.747
  20.600	       106	    1200	    10.296
  20.620	       112	    1200	    10.583
  20.640	        99	    1200	     9.950
  20.660	       105	    1200	    10.247
  20.680	       123	    1200	    11.091
  20.700	       113	    1200	    10.630
  20.720	       107	    1200	    10.344
  20.740	       122	    1200	    11.045
  20.760	       104	    1200	    10.198
  20.780	       103	    1200	    10.149
  20.800	       123	    1200	    11.091
  20.820	       113	    1200	    10.630
  20.840	       119	    1200	    10.909
  20.860	       108	    1200	    10.392
  20.880	       129	    1200	    11.358
  20.900	       125	    1200	    11.180
  20.920	       137	    1200	    11.705
  20.940	       109	    1200	    10.440
  20.960	       115	    1200	    10.724
  20.980	        96	    1200	     9.798
  21.000	       115	    1200	    10.724
  21.020	       110	    1200	    10.488
  21.040	       118	    1200	    10.863
  21.060	       122	    1200	    11.045
  21.080	       110	    1200	    10.488
  21.100	       125	    1200	    11.180
  21.120	       114	    1200	    10.677
  21.140	       130	    1200	    11.402
  21.160	       103	    1200	    10.149
  21.180	       124	    1200	    11.136
  21.200	       113	    1200	    10.630
  21.220	       117	    1200	    10.817
  21.240	       103	    1200	    10.149
  21.260	       114	    1200	    10.677
  21.280	       103	    1200	    10.149
  21.300	       121	    1200	    11.000
  21.320	        95	    1200	     9.747
  21.340	       111	    1200	    10.536
  21.360	       104	    1200	    10.198
  21.380	       111	    1200	    10.536
  21.400	       103	    1200	    10.149
  21.420	       123	    1200	    11.091
  21.440	       110	    1200	    10.488
  21.460	       116	    1200	    10.770
  21.480	        85	    1200	     9.220
  21.500	       118	    1200	    10.863
  21.520	       113	    1200	    10.630
  21.540	        97	    1200	     9.849
  21.560	       107	    1200	    10.344
  21.580	       125	    1200	    11.180
  21.600	       109	    1200	    10.440
  21.620	       105	    1200	    10.247
  21.640	       114	    1200	    10.677
  21.660	       103	    1200	    10.149
  21.680	       118	    1200	    10.863
  21.700	       105	    1200	    10.247
  21.720	       101	    1200	    10.050
  21.740	       115	    1200	    10.724
  21.760	       119	    1200	    10.909
  21.780	        99	    1200	     9.950
  21.800	       118	    1200	    10.863
  21.820	       124	    1200	    11.136
  21.840	       119	    1200	    10.909
  21.860	       100	    1200	    10.000
  21.880	       126	    1200	    11.225
  21.900	       107	    1200	    10.344
  21.920	       121	    1200	    11.000
  21.940	       124	    1200	    11.136
  21.960	       108	    1200	    10.392
  21.980	       105	    1200	    10.247
  22.000	        94	    1200	     9.695
  22.020	       109	    1200	    10.440
  22.040	       125	    1200	    11.180
  22.060	       124	    1200	    11.136
  22.080	       117	    1200	    10.817
  22.100	       112	    1200	    10.583
  22.120	       103	    1200	    10.149
  22.140	       132	    1200	    11.489
  22.160	       115	    1200	    10.724
  22.180	       136	    1200	    11.662
  22.200	       117	    1200	    10.817
  22.220	        88	    1200	     9.381
  22.240	       119	    1200	    10.909
  22.260	       125	    1200	    11.180
  22.280	       105	    1200	    10.247
  22.300	       115	    1200	    10.724
  22.320	       104	    1200	    10.198
  22.340	       101	    1200	    10.050
  22.360	       111	    1200	    10.536
  22.380	       129	    1200	    11.358
  22.400	       113	    1200	    10.630
  22.420	       131	    1200	    11.446
  22.440	       112	    1200	    10.583
  22.460	       123	    1200	    11.091
  22.480	       121	    1200	    11.000
  22.500	       162	    1200	    12.728
  22.520	       162	    1200	    12.728
  22.540	       151	    1200	    12.288
  22.560	       155	    1200	    12.450
  22.580	       141	    1200	    11.874
  22.600	       176	    1200	    13.266
  22.620	       172	    1200	    13.115
  22.640	       177	    1200	    13.304
  22.660	       178	    1200	    13.342
  22.680	       177	    1200	    13.304
  22.700	       169	    1200	    13.000
  22.720	       164	    1200	    12.806
  22.740	       136	    1200	    11.662
  22.760	       167	    1200	    12.923
  22.780	       151	    1200	    12.288
  22.800	       134	    1200	    11.576
  22.820	       125	    1200	    11.180
  22.840	       130	    1200	    11.402
  22.860	       106	    1200	    10.296
  22.880	       119	    1200	    10.909
  22.900	       127	    1200	    11.269
  22.920	       138	    1200	    11.747
  22.940	       109	    1200	    10.440
  22.960	       112	    1200	    10.583
  22.980	       102	    1200	    10.100
  23.000	       108	    1200	    10.392
  23.020	        97	    1200	     9.849
  23.040	       102	    1200	    10.100
  23.060	        99	    1200	     9.950
  23.080	        80	    1200	     8.944
  23.100	       111	    1200	    10.536
  23.120	        94	    1200	     9.695
  23.140	       119	    1200	    10.909
  23.160	       100	    1200	    10.000
  23.180	       120	    1200	    10.954
  23.200	       105	    1200	    10.247
  23.220	       120	    1200	    10.954
  23.240	       118	    1200	    10.863
  23.260	       125	    1200	    11.180
  23.280	       100	    1200	    10.000
  23.300	       113	    1200	    10.630
  23.320	       120	    1200	    10.954
  23.340	       103	    1200	    10.149
  23.360	       111	    1200	    10.536
  23.380	       103	    1200	    10.149
  23.400	       122	    1200	    11.045
  23.420	        95	    1200	     9.747
  23.440	        90	    1200	     9.487
  23.460	       105	    1200	    10.247
  23.480	       106	    1200	    10.296
  23.500	       108	    1200	    10.392
  23.520	       110	    1200	    10.488
  23.540	       113	    1200	    10.630
  23.560	       113	    1200	    10.630
  23.580	       123	    1200	    11.091
  23.600	       100	    1200	    10.000
  23.620	       120	    1200	    10.954
  23.640	       100	    1200	    10.000
  23.660	        92	    1200	     9.592
  23.680	       103	    1200	    10.149
  23.700	       105	    1200	    10.247
  23.720	       113	    1200	    10.630
  23.740	       117	    1200	    10.817
  23.760	        97	    1200	     9.849
  23.780	       131	    1200	    11.446
  23.800	        93	    1200	     9.644
  23.820	       104	    1200	    10.198
  23.840	       111	    1200	    10.536
  23.860	        90	    1200	     9.487
  23.880	       111	    1200	    10.536
  23.900	        84	    1200	     9.165
  23.920	       124	    1200	    11.136
  23.940	       107	    1200	    10.344
  23.960	       102	    1200	    10.100
  23.980	       101	    1200	    10.050
  24.000	       122	    1200	    11.045
  24.020	       104	    1200	    10.198
  24.040	       118	    1200	    10.863
  24.060	       109	    1200	    10.440
  24.080	       107	    1200	    10.344
  24.100	       119	    1200	    10.909
  24.120	       105	    1200	    10.247
  24.140	       116	    1200	    10.770
  24.160	        99	    1200	     9.950
  24.180	       102	    1200	    10.100
  24.200	       102	    1200	    10.100
  24.220	       117	    1200	    10.817
  24.240	       116	    1200	    10.770
  24.260	        81	    1200	     9.000
  24.280	        94	    1200	     9.695
  24.300	       106	    1200	    10.296
  24.320	       100	    1200	    10.000
  24.340	       113	    1200	    10.630
  24.360	       107	    1200	    10.344
  24.380	        97	    1200	     9.849
  24.400	       103	    1200	    10.149
  24.420	       106	    1200	    10.296
  24.440	       118	    1200	    10.863
  24.460	        84	    1200	     9.165
  24.480	        98	    1200	     9.899
  24.500	       105	    1200	    10.247
  24.520	       106	    1200	    10.296
  24.540	        98	    1200	     9.899
  24.560	       102	    1200	    10.100
  24.580	        87	    1200	     9.327
  24.600	       106	    1200	    10.296
  24.620	       121	    1200	    11.000
  24.640	        95	    1200	     9.747
  24.660	       111	    1200	    10.536
  24.680	        95	    1200	     9.747
  24.700	        92	    1200	     9.592
  24.720	       115	    1200	    10.724
  24.740	        93	    1200	     9.644
  24.760	       101	    1200	    10.050
  24.780	       102	    1200	    10.100
  24.800	       102	    1200	    10.100
  24.820	        99	    1200	     9.950
  24.840	        95	    1200	     9.747
  24.860	       115	    1200	    10.724
  24.880	       100	    1200	    10.000
  24.900	        97	    1200	     9.849
  24.920	       102	    1200	    10.100
  24.940	        96	    1200	     9.798
  24.960	        97	    1200	     9.849
  24.980	       107	    1200	    10.344
  25.000	       105	    1200	    10.247
  25.020	        89	    1200	     9.434
  25.040	       112	    1200	    10.583
  25.060	       104	    1200	    10.198
  25.080	        98	    1200	     9.899
  25.100	       103	    1200	    10.149
  25.120	       123	    1200	    11.091
  25.140	       115	    1200	    10.724
  25.160	        96	    1200	     9.798
  25.180	        92	    1200	     9.592
  25.200	       103	    1200	    10.149
  25.220	       108	    1200	    10.392
  25.240	       102	    1200	    10.100
  25.260	        88	    1200	     9.381
  25.280	        84	    1200	     9.165
  25.300	        93	    1200	     9.644
  25.320	        98	    1200	     9.899
  25.340	        86	    1200	     9.274
  25.360	        99	    1200	     9.950
  25.380	       103	    1200	    10.149
  25.400	        99	    1200	     9.950
  25.420	       102	    1200	    10.100
  25.440	        93	    1200	     9.644
  25.460	        89	    1200	     9.434
  25.480	       101	    1200	    10.050
  25.500	        96	    1200	     9.798
  25.520	       102	    1200	    10.100
  25.540	       106	    1200	    10.296
  25.560	       102	    1200	    10.100
  25.580	        84	    1200	     9.165
  25.600	        97	    1200	     9.849
  25.620	        98	    1200	     9.899
  25.640	        91	    1200	     9.539
  25.660	       103	    1200	    10.149
  25.680	        67	    1200	     8.185
  25.700	        84	    1200	     9.165
  25.720	        85	    1200	     9.220
  25.740	       103	    1200	    10.149
  25.760	        94	    1200	     9.695
  25.780	        83	    1200	     9.110
  25.800	        90	    1200	     9.487
  25.820	        98	    1200	     9.899
  25.840	        79	    1200	     8.888
  25.860	        97	    1200	     9.849
  25.880	        93	    1200	     9.644
  25.900	        96	    1200	     9.798
  25.920	        85	    1200	     9.220
  25.940	       106	    1200	    10.296
  25.960	        89	    1200	     9.434
  25.980	        86	    1200	     9.274
  26.000	        69	    1200	     8.307
  26.020	        76	    1200	     8.718
  26.040	        93	    1200	     9.644
  26.060	        92	    1200	     9.592
  26.080	        90	    1200	     9.487
  26.100	        89	    1200	     9.434
  26.120	        97	    1200	     9.849
  26.140	        98	    1200	     9.899
  26.160	        96	    1200	     9.798
  26.180	        86	    1200	     9.274
  26.200	        80	    1200	     8.944
  26.220	        81	    1200	     9.000
  26.240	        96	    1200	     9.798
  26.260	        86	    1200	     9.274
  26.280	        79	    1200	     8.888
  26.300	       103	    1200	    10.149
  26.320	        88	    1200	     9.381
  26.340	        90	    1200	     9.487
  26.360	        89	    1200	     9.434
  26.380	        83	    1200	     9.110
  26.400	        92	    1200	     9.592
  26.420	        80	    1200	     8.944
  26.440	        73	    1200	     8.544
  26.460	       104	    1200	    10.198
  26.480	       101	    1200	    10.050
  26.500	        88	    1200	     9.381
  26.520	        75	    1200	     8.660
  26.540	        93	    1200	     9.644
  26.560	        86	    1200	     9.274
  26.580	        86	    1200	     9.274
  26.600	        89	    1200	     9.434
  26.620	        79	    1200	     8.888
  26.640	        82	    1200	     9.055
  26.660	        95	    1200	     9.747
  26.680	        83	    1200	     9.110
  26.700	       108	    1200	    10.392
  26.720	        97	    1200	     9.849
  26.740	        72	    1200	     8.485
  26.760	        90	    1200	     9.487
  26.780	        85	    1200	     9.220
  26.800	       100	    1200	    10.000
  26.820	        92	    1200	     9.592
  26.840	        76	    1200	     8.718
  26.860	        83	    1200	     9.110
  26.880	        82	    1200	     9.055
  26.900	        86	    1200	     9.274
  26.920	        91	    1200	     9.539
  26.940	        84	    1200	     9.165
  26.960	        76	    1200	     8.718
  26.980	        72	    1200	     8.485
  27.000	        87	    1200	     9.327
  27.020	        91	    1200	     9.539
  27.040	        81	    1200	     9.000
  27.060	        74	    1200	     8.602
  27.080	       100	    1200	    10.000
  27.100	       102	    1200	    10.100
  27.120	        87	    1200	     9.327
  27.140	        93	    1200	     9.644
  27.160	        75	    1200	     8.660
  27.180	        94	    1200	     9.695
  27.200	        87	    1200	     9.327
  27.220	        77	    1200	     8.775
  27.240	        83	    1200	     9.110
  27.260	        91	    1200	     9.539
  27.280	        84	    1200	     9.165
  27.300	        82	    1200	     9.055
  27.320	        85	    1200	     9.220
  27.340	        82	    1200	     9.055
  27.360	        99	    1200	     9.950
  27.380	        73	    1200	     8.544
  27.400	        63	    1200	     7.937
  27.420	        88	    1200	     9.381
  27.440	        97	    1200	     9.849
  27.460	        75	    1200	     8.660
  27.480	        81	    1200	     9.000
  27.500	        89	    1200	     9.434
  27.520	        80	    1200	     8.944
  27.540	        88	    1200	     9.381
  27.560	        66	    1200	     8.124
  27.580	        98	    1200	     9.899
  27.600	        69	    1200	     8.307
  27.620	        93	    1200	     9.644
  27.640	        69	    1200	     8.307
  27.660	        77	    1200	     8.775
  27.680	        70	    1200	     8.367
  27.700	        86	    1200	     9.274
  27.720	        94	    1200	     9.695
  27.740	        78	    1200	     8.832
  27.760	        89	    1200	     9.434
  27.780	        83	    1200	     9.110
  27.800	        79	    1200	     8.888
  27.820	        79	    1200	     8.888
  27.840	        90	    1200	     9.487
  27.860	        82	    1200	     9.055
  27.880	        85	    1200	     9.220
  27.900	        73	    1200	     8.544
  27.920	        85	    1200	     9.220
  27.940	        86	    1200	     9.274
  27.960	        65	    1200	     8.062
  27.980	        81	    1200	     9.000
  28.000	        76	    1200	     8.718
  28.020	        73	    1200	     8.544
  28.040	        69	    1200	     8.307
  28.060	        89	    1200	     9.434
  28.080	        94	    1200	     9.695
  28.100	        76	    1200	     8.718
  28.120	        66	    1200	     8.124
  28.140	        87	    1200	     9.327
  28.160	        81	    1200	     9.000
  28.180	        84	    1200	     9.165
  28.200	        73	    1200	     8.544
  28.220	        74	    1200	     8.602
  28.240	        82	    1200	     9.055
  28.260	        87	    1200	     9.327
  28.280	        92	    1200	     9.592
  28.300	        79	    1200	     8.888
  28.320	        86	    1200	     9.274
  28.340	        61	    1200	     7.810
  28.360	        78	    1200	     8.832
  28.380	        79	    1200	     8.888
  28.400	        92	    1200	     9.592
  28.420	        96	    1200	     9.798
  28.440	        72	    1200	     8.485
  28.460	        84	    1200	     9.165
  28.480	       106	    1200	    10.296
  28.500	       102	    1200	    10.100
  28.520	        84	    1200	     9.165
  28.540	        79	    1200	     8.888
  28.560	        74	    1200	     8.602
  28.580	        76	    1200	     8.718
  28.600	        84	    1200	     9.165
  28.620	        91	    1200	     9.539
  28.640	        83	    1200	     9.110
  28.660	        76	    1200	     8.718
  28.680	        68	    1200	     8.246
  28.700	        84	    1200	     9.165
  28.720	        60	    1200	     7.746
  28.740	        78	    1200	     8.832
  28.760	        60	    1200	     7.746
  28.780	        76	    1200	     8.718
  28.800	        76	    1200	     8.718
  28.820	        85	    1200	     9.220
  28.840	        84	    1200	     9.165
  28.860	        89	    1200	     9.434
  28.880	        65	    1200	     8.062
  28.900	        89	    1200	     9.434
  28.920	        73	    1200	     8.544
  28.940	        86	    1200	     9.274
  28.960	        94	    1200	     9.695
  28.980	        84	    1200	     9.165
  29.000	        84	    1200	     9.165
  29.020	        64	    1200	     8.000
  29.040	        73	    1200	     8.544
  29.060	        64	    1200	     8.000
  29.080	        71	    1200	     8.426
  29.100	        74	    1200	     8.602
  29.120	        79	    1200	     8.888
  29.140	        76	    1200	     8.718
  29.160	        96	    1200	     9.798
  29.180	        71	    1200	     8.426
  29.200	        76	    1200	     8.718
  29.220	        71	    1200	     8.426
  29.240	        80	    1200	     8.944
  29.260	        69	    1200	     8.307
  29.280	        72	    1200	     8.485
  29.300	        73	    1200	     8.544
  29.320	        66	    1200	     8.124
  29.340	        60	    1200	     7.746
  29.360	        74	    1200	     8.602
  29.380	        75	    1200	     8.660
  29.400	        77	    1200	     8.775
  29.420	        76	    1200	     8.718
  29.440	        78	    1200	     8.832
  29.460	        68	    1200	     8.246
  29.480	        70	    1200	     8.367
  29.500	        72	    1200	     8.485
  29.520	        91	    1200	     9.539
  29.540	        88	    1200	     9.381
  29.560	        67	    1200	     8.185
  29.580	        65	    1200	     8.062
  29.600	        87	    1200	     9.327
  29.620	        75	    1200	     8.660
  29.640	        75	    1200	     8.660
  29.660	        61	    1200	     7.810
  29.680	        65	    1200	     8.062
  29.700	        76	    1200	     8.718
  29.720	        74	    1200	     8.602
  29.740	        89	    1200	     9.434
  29.760	        78	    1200	     8.832
  29.780	        70	    1200	     8.367
  29.800	        75	    1200	     8.660
  29.820	        79	    1200	     8.888
  29.840	        70	    1200	     8.367
  29.860	        67	    1200	     8.185
  29.880	        72	    1200	     8.485
  29.900	        77	    1200	     8.775
  29.920	        78	    1200	     8.832
  29.940	        78	    1200	     8.832
  29.960	        68	    1200	     8.246
  29.980	        70	    1200	     8.367
  30.000	        82	    1200	     9.055
  30.020	        94	    1200	     9.695
  30.040	        79	    1200	     8.888
  30.060	        86	    1200	     9.274
  30.080	        85	    1200	     9.220
  30.100	        81	    1200	     9.000
  30.120	        83	    1200	     9.110
  30.140	        84	    1200	     9.165
  30.160	        64	    1200	     8.000
  30.180	        81	    1200	     9.000
  30.200	        72	    1200	     8.485
  30.220	        75	    1200	     8.660
  30.240	        89	    1200	     9.434
  30.260	        66	    1200	     8.124
  30.280	        80	    1200	     8.944
  30.300	        81	    1200	     9.000
  30.320	        90	    1200	     9.487
  30.340	        69	    1200	     8.307
  30.360	        83	    1200	     9.110
  30.380	        83	    1200	     9.110
  30.400	        91	    1200	     9.539
  30.420	        79	    1200	     8.888
  30.440	        85	    1200	     9.220
  30.460	        85	    1200	     9.220
  30.480	        69	    1200	     8.307
  30.500	        84	    1200	     9.165
  30.520	        70	    1200	     8.367
  30.540	        83	    1200	     9.110
  30.560	        85	    1200	     9.220
  30.580	        72	    1200	     8.485
  30.600	        83	    1200	     9.110
  30.620	        86	    1200	     9.274
  30.640	        66	    1200	     8.124
  30.660	        69	    1200	     8.307
  30.680	       100	    1200	    10.000
  30.700	        90	    1200	     9.487
  30.720	        78	    1200	     8.832
  30.740	        76	    1200	     8.718
  30.760	        82	    1200	     9.055
  30.780	        92	    1200	     9.592
  30.800	        93	    1200	     9.644
  30.820	        75	    1200	     8.660
  30.840	        72	    1200	     8.485
  30.860	        76	    1200	     8.718
  30.880	        87	    1200	     9.327
  30.900	        98	    1200	     9.899
  30.920	        81	    1200	     9.000
  30.940	        96	    1200	     9.798
  30.960	        83	    1200	     9.110
  30.980	        78	    1200	     8.832
  31.000	        82	    1200	     9.055
  31.020	       102	    1200	    10.100
  31.040	       100	    1200	    10.000
  31.060	        99	    1200	     9.950
  31.080	        68	    1200	     8.246
  31.100	        97	    1200	     9.849
  31.120	        92	    1200	     9.592
  31.140	       102	    1200	    10.100
  31.160	        99	    1200	     9.950
  31.180	        99	    1200	     9.950
  31.200	        94	    1200	     9.695
  31.220	       104	    1200	    10.198
  31.240	        96	    1200	     9.798
  31.260	       114	    1200	    10.677
  31.280	        94	    1200	     9.695
  31.300	       100	    1200	    10.000
  31.320	        91	    1200	     9.539
  31.340	       100	    1200	    10.000
  31.360	        94	    1200	     9.695
  31.380	       101	    1200	    10.050
  31.400	       105	    1200	    10.247
  31.420	       104	    1200	    10.198
  31.440	       110	    1200	    10.488
  31.460	       111	    1200	    10.536
  31.480	       125	    1200	    11.180
  31.500	       128	    1200	    11.314
  31.520	       125	    1200	    11.180
  31.540	       124	    1200	    11.136
  31.560	       114	    1200	    10.677
  31.580	       131	    1200	    11.446
  31.600	       107	    1200	    10.344
  31.620	       145	    1200	    12.042
  31.640	       128	    1200	    11.314
  31.660	       158	    1200	    12.570
  31.680	       149	    1200	    12.207
  31.700	       144	    1200	    12.000
  31.720	       157	    1200	    12.530
  31.740	       144	    1200	    12.000
  31.760	       152	    1200	    12.329
  31.780	       167	    1200	    12.923
  31.800	       160	    1200	    12.649
  31.820	       174	    1200	    13.191
  31.840	       165	    1200	    12.845
  31.860	       205	    1200	    14.318
  31.880	       212	    1200	    14.560
  31.900	       240	    1200	    15.492
  31.920	       257	    1200	    16.031
  31.940	       291	    1200	    17.059
  31.960	       318	    1200	    17.833
  31.980	       348	    1200	    18.655
  32.000	       375	    1200	    19.365
  32.020	       435	    1200	    20.857
  32.040	       530	    1200	    23.022
  32.060	       616	    1200	    24.819
  32.080	       752	    1200	    27.423
  32.100	       878	    1200	    29.631
  32.120	      1031	    1200	    32.109
  32.140	      1305	    1200	    36.125
  32.160	      1418	    1200	    37.656
  32.180	      1735	    1200	    41.653
  32.200	      1905	    1200	    43.646
  32.220	      1952	    1200	    44.181
  32.240	      2270	    1200	    47.645
  32.260	      2230	    1200	    47.223
  32.280	      2438	    1200	    49.376
  32.300	      2587	    1200	    50.863
  32.320	      2586	    1200	    50.853
  32.340	      2611	    1200	    51.098
  32.360	      2547	    1200	    50.468
  32.380	      2709	    1200	    52.048
  32.400	      2755	    1200	    52.488
  32.420	      2687	    1200	    51.836
  32.440	      2602	    1200	    51.010
  32.460	      2502	    1200	    50.020
  32.480	      2281	    1200	    47.760
  32.500	      2119	    1200	    46.033
  32.520	      1882	    1200	    43.382
  32.540	      1733	    1200	    41.629
  32.560	      1473	    1200	    38.380
  32.580	      1255	    1200	    35.426
  32.600	      1029	    1200	    32.078
  32.620	       855	    1200	    29.240
  32.640	       741	    1200	    27.221
  32.660	       579	    1200	    24.062
  32.680	       514	    1200	    22.672
  32.700	       422	    1200	    20.543
  32.720	       356	    1200	    18.868
  32.740	       276	    1200	    16.613
  32.760	       247	    1200	    15.716
  32.780	       220	    1200	    14.832
  32.800	       197	    1200	    14.036
  32.820	       186	    1200	    13.638
  32.840	       194	    1200	    13.928
  32.860	       164	    1200	    12.806
  32.880	       151	    1200	    12.288
  32.900	       138	    1200	    11.747
  32.920	       159	    1200	    12.610
  32.940	       143	    1200	    11.958
  32.960	       147	    1200	    12.124
  32.980	       131	    1200	    11.446
  33.000	       121	    1200	    11.000
  33.020	       127	    1200	    11.269
  33.040	       103	    1200	    10.149
  33.060	       119	    1200	    10.909
  33.080	       120	    1200	    10.954
  33.100	       109	    1200	    10.440
  33.120	       128	    1200	    11.314
  33.140	       100	    1200	    10.000
  33.160	       109	    1200	    10.440
  33.180	        96	    1200	     9.798
  33.200	        92	    1200	     9.592
  33.220	        90	    1200	     9.487
  33.240	        93	    1200	     9.644
  33.260	        89	    1200	     9.434
  33.280	        80	    1200	     8.944
  33.300	       112	    1200	    10.583
  33.320	        96	    1200	     9.798
  33.340	       102	    1200	    10.100
  33.360	        94	    1200	     9.695
  33.380	        80	    1200	     8.944
  33.400	        87	    1200	     9.327
  33.420	        96	    1200	     9.798
  33.440	        82	    1200	     9.055
  33.460	        83	    1200	     9.110
  33.480	        86	    1200	     9.274
  33.500	        84	    1200	     9.165
  33.520	        94	    1200	     9.695
  33.540	        81	    1200	     9.000
  33.560	        88	    1200	     9.381
  33.580	        84	    1200	     9.165
  33.600	        68	    1200	     8.246
  33.620	        83	    1200	     9.110
  33.640	        89	    1200	     9.434
  33.660	        74	    1200	     8.602
  33.680	        84	    1200	     9.165
  33.700	        74	    1200	     8.602
  33.720	        78	    1200	     8.832
  33.740	        65	    1200	     8.062
  33.760	        77	    1200	     8.775
  33.780	        83	    1200	     9.110
  33.800	        97	    1200	     9.849
  33.820	        70	    1200	     8.367
  33.840	        78	    1200	     8.832
  33.860	        68	    1200	     8.246
  33.880	        81	    1200	     9.000
  33.900	        84	    1200	     9.165
  33.920	        69	    1200	     8.307
  33.940	        82	    1200	     9.055
  33.960	        74	    1200	     8.602
  33.980	        68	    1200	     8.246
  34.000	        70	    1200	     8.367
  34.020	        84	    1200	     9.165
  34.040	        82	    1200	     9.055
  34.060	        70	    1200	     8.367
  34.080	        70	    1200	     8.367
  34.100	        68	    1200	     8.246
  34.120	        73	    1200	     8.544
  34.140	        70	    1200	     8.367
  34.160	        82	    1200	     9.055
  34.180	        72	    1200	     8.485
  34.200	        75	    1200	     8.660
  34.220	        73	    1200	     8.544
  34.240	        60	    1200	     7.746
  34.260	        60	    1200	     7.746
  34.280	        59	    1200	     7.681
  34.300	        57	    1200	     7.550
  34.320	        57	    1200	     7.550
  34.340	        72	    1200	     8.485
  34.360	        69	    1200	     8.307
  34.380	        67	    1200	     8.185
  34.400	        71	    1200	     8.426
  34.420	        57	    1200	     7.550
  34.440	        61	    1200	     7.810
  34.460	        75	    1200	     8.660
  34.480	        55	    1200	     7.416
  34.500	        75	    1200	     8.660
  34.520	        70	    1200	     8.367
  34.540	        64	    1200	     8.000
  34.560	        65	    1200	     8.062
  34.580	        54	    1200	     7.348
  34.600	        60	    1200	     7.746
  34.620	        64	    1200	     8.000
  34.640	        63	    1200	     7.937
  34.660	        59	    1200	     7.681
  34.680	        43	    1200	     6.557
  34.700	        58	    1200	     7.616
  34.720	        63	    1200	     7.937
  34.740	        59	    1200	     7.681
  34.760	        62	    1200	     7.874
  34.780	        58	    1200	     7.616
  34.800	        66	    1200	     8.124
  34.820	        56	    1200	     7.483
  34.840	        70	    1200	     8.367
  34.860	        67	    1200	     8.185
  34.880	        42	    1200	     6.481
  34.900	        38	    1200	     6.164
  34.920	        62	    1200	     7.874
  34.940	        69	    1200	     8.307
  34.960	        60	    1200	     7.746
  34.980	        59	    1200	     7.681
  35.000	        63	    1200	     7.937
  35.020	        57	    1200	     7.550
  35.040	        72	    1200	     8.485
  35.060	        56	    1200	     7.483
  35.080	        68	    1200	     8.246
  35.100	        67	    1200	     8.185
  35.120	        58	    1200	     7.616
  35.140	        58	    1200	     7.616
  35.160	        60	    1200	     7.746
  35.180	        59	    1200	     7.681
  35.200	        67	    1200	     8.185
  35.220	        52	    1200	     7.211
  35.240	        62	    1200	     7.874
  35.260	        58	    1200	     7.616
  35.280	        60	    1200	     7.746
  35.300	        68	    1200	     8.246
  35.320	        55	    1200	     7.416
  35.340	        55	    1200	     7.416
  35.360	        59	    1200	     7.681
  35.380	        55	    1200	     7.416
  35.400	        58	    1200	     7.616
  35.420	        66	    1200	     8.124
  35.440	        70	    1200	     8.367
  35.460	        63	    1200	     7.937
  35.480	        64	    1200	     8.000
  35.500	        56	    1200	     7.483
  35.520	        72	    1200	     8.485
  35.540	        69	    1200	     8.307
  35.560	        58	    1200	     7.616
  35.580	        55	    1200	     7.416
  35.600	        62	    1200	     7.874
  35.620	        56	    1200	     7.483
  35.640	        54	    1200	     7.348
  35.660	        55	    1200	     7.416
  35.680	        53	    1200	     7.280
  35.700	        59	    1200	     7.681
  35.720	        50	    1200	     7.071
  35.740	        72	    1200	     8.485
  35.760	        58	    1200	     7.616
  35.780	        56	    1200	     7.483
  35.800	        49	    1200	     7.000
  35.820	        46	    1200	     6.782
  35.840	        53	    1200	     7.280
  35.860	        49	    1200	     7.000
  35.880	        41	    1200	     6.403
  35.900	        50	    1200	     7.071
  35.920	        58	    1200	     7.616
  35.940	        69	    1200	     8.307
  35.960	        41	    1200	     6.403
  35.980	        48	    1200	     6.928
  36.000	        64	    1200	     8.000
  36.020	        59	    1200	     7.681
  36.040	        57	    1200	     7.550
  36.060	        49	    1200	     7.000
  36.080	        55	    1200	     7.416
  36.100	        58	    1200	     7.616
  36.120	        49	    1200	     7.000
  36.140	        63	    1200	     7.937
  36.160	        48	    1200	     6.928
  36.180	        55	    1200	     7.416
  36.200	        43	    1200	     6.557
  36.220	        50	    1200	     7.071
  36.240	        53	    1200	     7.280
  36.260	        44	    1200	     6.633
  36.280	        56	    1200	     7.483
  36.300	        54	    1200	     7.348
  36.320	        52	    1200	     7.211
  36.340	        36	    1200	     6.000
  36.360	        42	    1200	     6.481
  36.380	        51	    1200	     7.141
  36.400	        50	    1200	     7.071
  36.420	        48	    1200	     6.928
  36.440	        53	    1200	     7.280
  36.460	        45	    1200	     6.708
  36.480	        60	    1200	     7.746
  36.500	        54	    1200	     7.348
  36.520	        48	    1200	     6.928
  36.540	        48	    1200	     6.928
  36.560	        53	    1200	     7.280
  36.580	        52	    1200	     7.211
  36.600	        51	    1200	     7.141
  36.620	        42	    1200	     6.481
  36.640	        61	    1200	     7.810
  36.660	        54	    1200	     7.348
  36.680	        54	    1200	     7.348
  36.700	        56	    1200	     7.483
  36.720	        34	    1200	     5.831
  36.740	        44	    1200	     6.633
  36.760	        40	    1200	     6.325
  36.780	        47	    1200	     6.856
  36.800	        41	    1200	     6.403
  36.820	        47	    1200	     6.856
  36.840	        48	    1200	     6.928
  36.860	        48	    1200	     6.928
  36.880	        38	    1200	     6.164
  36.900	        56	    1200	     7.483
  36.920	        49	    1200	     7.000
  36.940	        36	    1200	     6.000
  36.960	        47	    1200	     6.856
  36.980	        59	    1200	     7.681
  37.000	        41	    1200	     6.403
  37.020	        35	    1200	     5.916
  37.040	        46	    1200	     6.782
  37.060	        51	    1200	     7.141
  37.080	        57	    1200	     7.550
  37.100	        45	    1200	     6.708
  37.120	        51	    1200	     7.141
  37.140	        39	    1200	     6.245
  37.160	        42	    1200	     6.481
  37.180	        47	    1200	     6.856
  37.200	        52	    1200	     7.211
  37.220	        41	    1200	     6.403
  37.240	        55	    1200	     7.416
  37.260	        35	    1200	     5.916
  37.280	        55	    1200	     7.416
  37.300	        49	    1200	     7.000
  37.320	        46	    1200	     6.782
  37.340	        35	    1200	     5.916
  37.360	        50	    1200	     7.071
  37.380	        45	    1200	     6.708
  37.400	        51	    1200	     7.141
  37.420	        41	    1200	     6.403
  37.440	        51	    1200	     7.141
  37.460	        52	    1200	     7.211
  37.480	        40	    1200	     6.325
  37.500	        45	    1200	     6.708
  37.520	        47	    1200	     6.856
  37.540	        48	    1200	     6.928
  37.560	        40	    1200	     6.325
  37.580	        43	    1200	     6.557
  37.600	        40	    1200	     6.325
  37.620	        47	    1200	     6.856
  37.640	        56	    1200	     7.483
  37.660	        45	    1200	     6.708
  37.680	        34	    1200	     5.831
  37.700	        49	    1200	     7.000
  37.720	        49	    1200	     7.000
  37.740	        44	    1200	     6.633
  37.760	        45	    1200	     6.708
  37.780	        38	    1200	     6.164
  37.800	        45	    1200	     6.708
  37.820	        25	    1200	     5.000
  37.840	        44	    1200	     6.633
  37.860	        45	    1200	     6.708
  37.880	        49	    1200	     7.000
  37.900	        42	    1200	     6.481
  37.920	        44	    1200	     6.633
  37.940	        48	    1200	     6.928
  37.960	        57	    1200	     7.550
  37.980	        56	    1200	     7.483
  38.000	        57	    1200	     7.550
  38.020	        56	    1200	     7.483
  38.040	        37	    1200	     6.083
  38.060	        46	    1200	     6.782
  38.080	        60	    1200	     7.746
  38.100	        47	    1200	     6.856
  38.120	        50	    1200	     7.071
  38.140	        51	    1200	     7.141
  38.160	        43	    1200	     6.557
  38.180	        40	    1200	     6.325
  38.200	        50	    1200	     7.071
  38.220	        52	    1200	     7.211
  38.240	        51	    1200	     7.141
  38.260	        39	    1200	     6.245
  38.280	        37	    1200	     6.083
  38.300	        45	    1200	     6.708
  38.320	        42	    1200	     6.481
  38.340	        50	    1200	     7.071
  38.360	        52	    1200	     7.211
  38.380	        46	    1200	     6.782
  38.400	        52	    1200	     7.211
  38.420	        43	    1200	     6.557
  38.440	        57	    1200	     7.550
  38.460	        39	    1200	     6.245
  38.480	        39	    1200	     6.245
  38.500	        53	    1200	     7.280
  38.520	        34	    1200	     5.831
  38.540	        47	    1200	     6.856
  38.560	        44	    1200	     6.633
  38.580	        53	    1200	     7.280
  38.600	        45	    1200	     6.708
  38.620	        46	    1200	     6.782
  38.640	        47	    1200	     6.856
  38.660	        38	    1200	     6.164
  38.680	        42	    1200	     6.481
  38.700	        63	    1200	     7.937
  38.720	        54	    1200	     7.348
  38.740	        41	    1200	     6.403
  38.760	        52	    1200	     7.211
  38.780	        50	    1200	     7.071
  38.800	        39	    1200	     6.245
  38.820	        56	    1200	     7.483
  38.840	        47	    1200	     6.856
  38.860	        46	    1200	     6.782
  38.880	        49	    1200	     7.000
  38.900	        45	    1200	     6.708
  38.920	        41	    1200	     6.403
  38.940	        54	    1200	     7.348
  38.960	        68	    1200	     8.246
  38.980	        56	    1200	     7.483
  39.000	        45	    1200	     6.708
  39.020	        51	    1200	     7.141
  39.040	        60	    1200	     7.746
  39.060	        50	    1200	     7.071
  39.080	        44	    1200	     6.633
  39.100	        59	    1200	     7.681
  39.120	        54	    1200	     7.348
  39.140	        67	    1200	     8.185
  39.160	        37	    1200	     6.083
  39.180	        55	    1200	     7.416
  39.200	        48	    1200	     6.928
  39.220	        48	    1200	     6.928
  39.240	        65	    1200	     8.062
  39.260	        61	    1200	     7.810
  39.280	        62	    1200	     7.874
  39.300	        66	    1200	     8.124
  39.320	        56	    1200	     7.483
  39.340	        84	    1200	     9.165
  39.360	        47	    1200	     6.856
  39.380	        76	    1200	     8.718
  39.400	        76	    1200	     8.718
  39.420	        72	    1200	     8.485
  39.440	        76	    1200	     8.718
  39.460	        72	    1200	     8.485
  39.480	        80	    1200	     8.944
  39.500	        90	    1200	     9.487
  39.520	        95	    1200	     9.747
  39.540	       104	    1200	    10.198
  39.560	       121	    1200	    11.000
  39.580	       122	    1200	    11.045
  39.600	       135	    1200	    11.619
  39.620	       168	    1200	    12.961
  39.640	       190	    1200	    13.784
  39.660	       204	    1200	    14.283
  39.680	       216	    1200	    14.697
  39.700	       275	    1200	    16.583
  39.720	       322	    1200	    17.944
  39.740	       329	    1200	    18.138
  39.760	       349	    1200	    18.682
  39.780	       401	    1200	    20.025
  39.800	       396	    1200	    19.900
  39.820	       370	    1200	    19.235
  39.840	       466	    1200	    21.587
  39.860	       454	    1200	    21.307
  39.880	       439	    1200	    20.952
  39.900	       438	    1200	    20.928
  39.920	       466	    1200	    21.587
  39.940	       434	    1200	    20.833
  39.960	       406	    1200	    20.149
  39.980	       418	    1200	    20.445
  40.000	       413	    1200	    20.322
  40.020	       451	    1200	    21.237
  40.040	       431	    1200	    20.761
  40.060	       460	    1200	    21.448
  40.080	       370	    1200	    19.235
  40.100	       371	    1200	    19.261
  40.120	       339	    1200	    18.412
  40.140	       326	    1200	    18.055
  40.160	       295	    1200	    17.176
  40.180	       279	    1200	    16.703
  40.200	       206	    1200	    14.353
  40.220	       209	    1200	    14.457
  40.240	       173	    1200	    13.153
  40.260	       162	    1200	    12.728
  40.280	       151	    1200	    12.288
  40.300	       115	    1200	    10.724
  40.320	       111	    1200	    10.536
  40.340	        96	    1200	     9.798
  40.360	        90	    1200	     9.487
  40.380	        78	    1200	     8.832
  40.400	        75	    1200	     8.660
  40.420	        72	    1200	     8.485
  40.440	        77	    1200	     8.775
  40.460	        62	    1200	     7.874
  40.480	        63	    1200	     7.937
  40.500	        57	    1200	     7.550
  40.520	        59	    1200	     7.681
  40.540	        47	    1200	     6.856
  40.560	        53	    1200	     7.280
  40.580	        57	    1200	     7.550
  40.600	        47	    1200	     6.856
  40.620	        43	    1200	     6.557
  40.640	        44	    1200	     6.633
  40.660	        49	    1200	     7.000
  40.680	        53	    1200	     7.280
  40.700	        45	    1200	     6.708
  40.720	        48	    1200	     6.928
  40.740	        45	    1200	     6.708
  40.760	        54	    1200	     7.348
  40.780	        37	    1200	     6.083
  40.800	        46	    1200	     6.782
  40.820	        42	    1200	     6.481
  40.840	        49	    1200	     7.000
  40.860	        53	    1200	     7.280
  40.880	        41	    1200	     6.403
  40.900	        44	    1200	     6.633
  40.920	        47	    1200	     6.856
  40.940	        46	    1200	     6.782
  40.960	        48	    1200	     6.928
  40.980	        48	    1200	     6.928
  41.000	        56	    1200	     7.483
  41.020	        54	    1200	     7.348
  41.040	        47	    1200	     6.856
  41.060	        44	    1200	     6.633
  41.080	        48	    1200	     6.928
  41.100	        38	    1200	     6.164
  41.120	        39	    1200	     6.245
  41.140	        43	    1200	     6.557
  41.160	        44	    1200	     6.633
  41.180	        51	    1200	     7.141
  41.200	        49	    1200	     7.000
  41.220	        49	    1200	     7.000
  41.240	        37	    1200	     6.083
  41.260	        49	    1200	     7.000
  41.280	        38	    1200	     6.164
  41.300	        49	    1200	     7.000
  41.320	        35	    1200	     5.916
  41.340	        38	    1200	     6.164
  41.360	        48	    1200	     6.928
  41.380	        53	    1200	     7.280
  41.400	        45	    1200	     6.708
  41.420	        39	    1200	     6.245
  41.440	        38	    1200	     6.164
  41.460	        47	    1200	     6.856
  41.480	        47	    1200	     6.856
  41.500	        58	    1200	     7.616
  41.520	        47	    1200	     6.856
  41.540	        42	    1200	     6.481
  41.560	        46	    1200	     6.782
  41.580	        44	    1200	     6.633
  41.600	        38	    1200	     6.164
  41.620	        52	    1200	     7.211
  41.640	        54	    1200	     7.348
  41.660	        34	    1200	     5.831
  41.680	        52	    1200	     7.211
  41.700	        49	    1200	     7.000
  41.720	        36	    1200	     6.000
  41.740	        44	    1200	     6.633
  41.760	        49	    1200	     7.000
  41.780	        34	    1200	     5.831
  41.800	        38	    1200	     6.164
  41.820	        38	    1200	     6.164
  41.840	        31	    1200	     5.568
  41.860	        39	    1200	     6.245
  41.880	        30	    1200	     5.477
  41.900	        45	    1200	     6.708
  41.920	        39	    1200	     6.245
  41.940	        33	    1200	     5.745
  41.960	        41	    1200	     6.403
  41.980	        45	    1200	     6.708
  42.000	        45	    1200	     6.708
  42.020	        51	    1200	     7.141
  42.040	        26	    1200	     5.099
  42.060	        46	    1200	     6.782
  42.080	        38	    1200	     6.164
  42.100	        43	    1200	     6.557
  42.120	        46	    1200	     6.782
  42.140	        40	    1200	     6.325
  42.160	        43	    1200	     6.557
  42.180	        44	    1200	     6.633
  42.200	        37	    1200	     6.083
  42.220	        43	    1200	     6.557
  42.240	        38	    1200	     6.164
  42.260	        38	    1200	     6.164
  42.280	        40	    1200	     6.325
  42.300	        54	    1200	     7.348
  42.320	        31	    1200	     5.568
  42.340	        52	    1200	     7.211
  42.360	        53	    1200	     7.280
  42.380	        37	    1200	     6.083
  42.400	        43	    1200	     6.557
  42.420	        50	    1200	     7.071
  42.440	        45	    1200	     6.708
  42.460	        42	    1200	     6.481
  42.480	        45	    1200	     6.708
  42.500	        63	    1200	     7.937
  42.520	        52	    1200	     7.211
  42.540	        44	    1200	     6.633
  42.560	        45	    1200	     6.708
  42.580	        43	    1200	     6.557
  42.600	        50	    1200	     7.071
  42.620	        41	    1200	     6.403
  42.640	        57	    1200	     7.550
  42.660	        45	    1200	     6.708
  42.680	        41	    1200	     6.403
  42.700	        45	    1200	     6.708
  42.720	        48	    1200	     6.928
  42.740	        53	    1200	     7.280
  42.760	        51	    1200	     7.141
  42.780	        45	    1200	     6.708
  42.800	        53	    1200	     7.280
  42.820	        48	    1200	     6.928
  42.840	        58	    1200	     7.616
  42.860	        50	    1200	     7.071
  42.880	        48	    1200	     6.928
  42.900	        47	    1200	     6.856
  42.920	        31	    1200	     5.568
  42.940	        40	    1200	     6.325
  42.960	        46	    1200	     6.782
  42.980	        37	    1200	     6.083
  43.000	        50	    1200	     7.071
  43.020	        44	    1200	     6.633
  43.040	        38	    1200	     6.164
  43.060	        40	    1200	     6.325
  43.080	        47	    1200	     6.856
  43.100	        52	    1200	     7.211
  43.120	        43	    1200	     6.557
  43.140	        45	    1200	     6.708
  43.160	        51	    1200	     7.141
  43.180	        37	    1200	     6.083
  43.200	        34	    1200	     5.831
  43.220	        40	    1200	     6.325
  43.240	        34	    1200	     5.831
  43.260	        52	    1200	     7.211
  43.280	        50	    1200	     7.071
  43.300	        56	    1200	     7.483
  43.320	        39	    1200	     6.245
  43.340	        33	    1200	     5.745
  43.360	        44	    1200	     6.633
  43.380	        36	    1200	     6.000
  43.400	        51	    1200	     7.141
  43.420	        32	    1200	     5.657
  43.440	        29	    1200	     5.385
  43.460	        43	    1200	     6.557
  43.480	        41	    1200	     6.403
  43.500	        40	    1200	     6.325
  43.520	        41	    1200	     6.403
  43.540	        43	    1200	     6.557
  43.560	        48	    1200	     6.928
  43.580	        46	    1200	     6.782
  43.600	        31	    1200	     5.568
  43.620	        30	    1200	     5.477
  43.640	        56	    1200	     7.483
  43.660	        33	    1200	     5.745
  43.680	        49	    1200	     7.000
  43.700	        45	    1200	     6.708
  43.720	        64	    1200	     8.000
  43.740	        39	    1200	     6.245
  43.760	        47	    1200	     6.856
  43.780	        48	    1200	     6.928
  43.800	        42	    1200	     6.481
  43.820	        53	    1200	     7.280
  43.840	        47	    1200	     6.856
  43.860	        36	    1200	     6.000
  43.880	        53	    1200	     7.280
  43.900	        39	    1200	     6.245
  43.920	        36	    1200	     6.000
  43.940	        41	    1200	     6.403
  43.960	        50	    1200	     7.071
  43.980	        31	    1200	     5.568
  44.000	        46	    1200	     6.782
  44.020	        51	    1200	     7.141
  44.040	        41	    1200	     6.403
  44.060	        41	    1200	     6.403
  44.080	        44	    1200	     6.633
  44.100	        36	    1200	     6.000
  44.120	        46	    1200	     6.782
  44.140	        50	    1200	     7.071
  44.160	        38	    1200	     6.164
  44.180	        43	    1200	     6.557
  44.200	        43	    1200	     6.557
  44.220	        36	    1200	     6.000
  44.240	        43	    1200	     6.557
  44.260	        48	    1200	     6.928
  44.280	        45	    1200	     6.708
  44.300	        53	    1200	     7.280
  44.320	        56	    1200	     7.483
  44.340	        50	    1200	     7.071
  44.360	        47	    1200	     6.856
  44.380	        47	    1200	     6.856
  44.400	        47	    1200	     6.856
  44.420	        52	    1200	     7.211
  44.440	        44	    1200	     6.633
  44.460	        39	    1200	     6.245
  44.480	        47	    1200	     6.856
  44.500	        53	    1200	     7.280
  44.520	        39	    1200	     6.245
  44.540	        59	    1200	     7.681
  44.560	        53	    1200	     7.280
  44.580	        51	    1200	     7.141
  44.600	        61	    1200	     7.810
  44.620	        43	    1200	     6.557
  44.640	        46	    1200	     6.782
  44.660	        49	    1200	     7.000
  44.680	        51	    1200	     7.141
  44.700	        48	    1200	     6.928
  44.720	        43	    1200	     6.557
  44.740	        46	    1200	     6.782
  44.760	        48	    1200	     6.928
  44.780	        34	    1200	     5.831
  44.800	        43	    1200	     6.557
  44.820	        50	    1200	     7.071
  44.840	        45	    1200	     6.708
  44.860	        39	    1200	     6.245
  44.880	        46	    1200	     6.782
  44.900	        36	    1200	     6.000
  44.920	        46	    1200	     6.782
  44.940	        67	    1200	     8.185
  44.960	        54	    1200	     7.348
  44.980	        53	    1200	     7.280
  45.000	        50	    1200	     7.071
  45.020	        45	    1200	     6.708
  45.040	        41	    1200	     6.403
  45.060	        49	    1200	     7.000
  45.080	        53	    1200	     7.280
  45.100	        57	    1200	     7.550
  45.120	        56	    1200	     7.483
  45.140	        44	    1200	     6.633
  45.160	        60	    1200	     7.746
  45.180	        42	    1200	     6.481
  45.200	        37	    1200	     6.083
  45.220	        47	    1200	     6.856
  45.240	        62	    1200	     7.874
  45.260	        41	    1200	     6.403
  45.280	        49	    1200	     7.000
  45.300	        56	    1200	     7.483
  45.320	        62	    1200	     7.874
  45.340	        53	    1200	     7.280
  45.360	        50	    1200	     7.071
  45.380	        52	    1200	     7.211
  45.400	        46	    1200	     6.782
  45.420	        58	    1200	     7.616
  45.440	        54	    1200	     7.348
  45.460	        56	    1200	     7.483
  45.480	        45	    1200	     6.708
  45.500	        42	    1200	     6.481
  45.520	        58	    1200	     7.616
  45.540	        59	    1200	     7.681
  45.560	        67	    1200	     8.185
  45.580	        54	    1200	     7.348
  45.600	        69	    1200	     8.307
  45.620	        58	    1200	     7.616
  45.640	        61	    1200	     7.810
  45.660	        61	    1200	     7.810
  45.680	        74	    1200	     8.602
  45.700	        73	    1200	     8.544
  45.720	        77	    1200	     8.775
  45.740	        61	    1200	     7.810
  45.760	        69	    1200	     8.307
  45.780	        75	    1200	     8.660
  45.800	        71	    1200	     8.426
  45.820	        62	    1200	     7.874
  45.840	        91	    1200	     9.539
  45.860	        92	    1200	     9.592
  45.880	        76	    1200	     8.718
  45.900	        87	    1200	     9.327
  45.920	       104	    1200	    10.198
  45.940	        89	    1200	     9.434
  45.960	       115	    1200	    10.724
  45.980	       120	    1200	    10.954
  46.000	       117	    1200	    10.817
  46.020	       150	    1200	    12.247
  46.040	       160	    1200	    12.649
  46.060	       173	    1200	    13.153
  46.080	       195	    1200	    13.964
  46.100	       212	    1200	    14.560
  46.120	       239	    1200	    15.460
  46.140	       299	    1200	    17.292
  46.160	       356	    1200	    18.868
  46.180	       382	    1200	    19.545
  46.200	       433	    1200	    20.809
  46.220	       481	    1200	    21.932
  46.240	       568	    1200	    23.833
  46.260	       651	    1200	    25.515
  46.280	       674	    1200	    25.962
  46.300	       684	    1200	    26.153
  46.320	       742	    1200	    27.240
  46.340	       755	    1200	    27.477
  46.360	       784	    1200	    28.000
  46.380	       811	    1200	    28.478
  46.400	       846	    1200	    29.086
  46.420	       802	    1200	    28.320
  46.440	       821	    1200	    28.653
  46.460	       877	    1200	    29.614
  46.480	       834	    1200	    28.879
  46.500	       869	    1200	    29.479
  46.520	       848	    1200	    29.120
  46.540	       846	    1200	    29.086
  46.560	       855	    1200	    29.240
  46.580	       855	    1200	    29.240
  46.600	       852	    1200	    29.189
  46.620	       807	    1200	    28.408
  46.640	       766	    1200	    27.677
  46.660	       729	    1200	    27.000
  46.680	       754	    1200	    27.459
  46.700	       662	    1200	    25.729
  46.720	       557	    1200	    23.601
  46.740	       580	    1200	    24.083
  46.760	       505	    1200	    22.472
  46.780	       444	    1200	    21.071
  46.800	       412	    1200	    20.298
  46.820	       388	    1200	    19.698
  46.840	       347	    1200	    18.628
  46.860	       334	    1200	    18.276
  46.880	       281	    1200	    16.763
  46.900	       254	    1200	    15.937
  46.920	       223	    1200	    14.933
  46.940	       207	    1200	    14.387
  46.960	       193	    1200	    13.892
  46.980	       175	    1200	    13.229
  47.000	       139	    1200	    11.790
  47.020	       136	    1200	    11.662
  47.040	       123	    1200	    11.091
  47.060	       107	    1200	    10.344
  47.080	        94	    1200	     9.695
  47.100	        90	    1200	     9.487
  47.120	        96	    1200	     9.798
  47.140	        78	    1200	     8.832
  47.160	        68	    1200	     8.246
  47.180	        71	    1200	     8.426
  47.200	        81	    1200	     9.000
  47.220	        68	    1200	     8.246
  47.240	        64	    1200	     8.000
  47.260	        50	    1200	     7.071
  47.280	        62	    1200	     7.874
  47.300	        64	    1200	     8.000
  47.320	        64	    1200	     8.000
  47.340	        72	    1200	     8.485
  47.360	        58	    1200	     7.616
  47.380	        69	    1200	     8.307
  47.400	        60	    1200	     7.746
  47.420	        57	    1200	     7.550
  47.440	        54	    1200	     7.348
  47.460	        42	    1200	     6.481
  47.480	        49	    1200	     7.000
  47.500	        51	    1200	     7.141
  47.520	        44	    1200	     6.633
  47.540	        38	    1200	     6.164
  47.560	        59	    1200	     7.681
  47.580	        44	    1200	     6.633
  47.600	        52	    1200	     7.211
  47.620	        47	    1200	     6.856
  47.640	        48	    1200	     6.928
  47.660	        36	    1200	     6.000
  47.680	        54	    1200	     7.348
  47.700	        46	    1200	     6.782
  47.720	        47	    1200	     6.856
  47.740	        54	    1200	     7.348
  47.760	        51	    1200	     7.141
  47.780	        42	    1200	     6.481
  47.800	        42	    1200	     6.481
  47.820	        49	    1200	     7.000
  47.840	        44	    1200	     6.633
  47.860	        51	    1200	     7.141
  47.880	        48	    1200	     6.928
  47.900	        41	    1200	     6.403
  47.920	        52	    1200	     7.211
  47.940	        39	    1200	     6.245
  47.960	        44	    1200	     6.633
  47.980	        35	    1200	     5.916
  48.000	        47	    1200	     6.856
  48.020	        44	    1200	     6.633
  48.040	        38	    1200	     6.164
  48.060	        50	    1200	     7.071
  48.080	        53	    1200	     7.280
  48.100	        43	    1200	     6.557
  48.120	        43	    1200	     6.557
  48.140	        50	    1200	     7.071
  48.160	        33	    1200	     5.745
  48.180	        54	    1200	     7.348
  48.200	        34	    1200	     5.831
  48.220	        42	    1200	     6.481
  48.240	        32	    1200	     5.657
  48.260	        35	    1200	     5.916
  48.280	        45	    1200	     6.708
  48.300	        35	    1200	     5.916
  48.320	        38	    1200	     6.164
  48.340	        44	    1200	     6.633
  48.360	        35	    1200	     5.916
  48.380	        40	    1200	     6.325
  48.400	        39	    1200	     6.245
  48.420	        30	    1200	     5.477
  48.440	        42	    1200	     6.481
  48.460	        48	    1200	     6.928
  48.480	        51	    1200	     7.141
  48.500	        43	    1200	     6.557
  48.520	        48	    1200	     6.928
  48.540	        48	    1200	     6.928
  48.560	        38	    1200	     6.164
  48.580	        44	    1200	     6.633
  48.600	        42	    1200	     6.481
  48.620	        32	    1200	     5.657
  48.640	        42	    1200	     6.481
  48.660	        42	    1200	     6.481
  48.680	        38	    1200	     6.164
  48.700	        43	    1200	     6.557
  48.720	        42	    1200	     6.481
  48.740	        36	    1200	     6.000
  48.760	        52	    1200	     7.211
  48.780	        42	    1200	     6.481
  48.800	        45	    1200	     6.708
  48.820	        38	    1200	     6.164
  48.840	        38	    1200	     6.164
  48.860	        32	    1200	     5.657
  48.880	        41	    1200	     6.403
  48.900	        48	    1200	     6.928
  48.920	        26	    1200	     5.099
  48.940	        35	    1200	     5.916
  48.960	        47	    1200	     6.856
  48.980	        41	    1200	     6.403
  49.000	        38	    1200	     6.164
  49.020	        36	    1200	     6.000
  49.040	        39	    1200	     6.245
  49.060	        31	    1200	     5.568
  49.080	        40	    1200	     6.325
  49.100	        41	    1200	     6.403
  49.120	        36	    1200	     6.000
  49.140	        42	    1200	     6.481
  49.160	        46	    1200	     6.782
  49.180	        43	    1200	     6.557
  49.200	        44	    1200	     6.633
  49.220	        36	    1200	     6.000
  49.240	        36	    1200	     6.000
  49.260	        42	    1200	     6.481
  49.280	        44	    1200	     6.633
  49.300	        41	    1200	     6.403
  49.320	        38	    1200	     6.164
  49.340	        42	    1200	     6.481
  49.360	        41	    1200	     6.403
  49.380	        53	    1200	     7.280
  49.400	        34	    1200	     5.831
  49.420	        41	    1200	     6.403
  49.440	        46	    1200	     6.782
  49.460	        41	    1200	     6.403
  49.480	        51	    1200	     7.141
  49.500	        31	    1200	     5.568
  49.520	        43	    1200	     6.557
  49.540	        36	    1200	     6.000
  49.560	        34	    1200	     5.831
  49.580	        48	    1200	     6.928
  49.600	        31	    1200	     5.568
  49.620	        43	    1200	     6.557
  49.640	        37	    1200	     6.083
  49.660	        33	    1200	     5.745
  49.680	        41	    1200	     6.403
  49.700	        46	    1200	     6.782
  49.720	        24	    1200	     4.899
  49.740	        39	    1200	     6.245
  49.760	        45	    1200	     6.708
  49.780	        39	    1200	     6.245
  49.800	        43	    1200	     6.557
  49.820	        36	    1200	     6.000
  49.840	        41	    1200	     6.403
  49.860	        45	    1200	     6.708
  49.880	        33	    1200	     5.745
  49.900	        36	    1200	     6.000
  49.920	        36	    1200	     6.000
  49.940	        32	    1200	     5.657
  49.960	        47	    1200	     6.856
  49.980	        31	    1200	     5.568
  50.000	        37	    1200	     6.083
  50.020	        42	    1200	     6.481
  50.040	        24	    1200	     4.899
  50.060	        26	    1200	     5.099
  50.080	        28	    1200	     5.292
  50.100	        39	    1200	     6.245
  50.120	        43	    1200	     6.557
  50.140	        33	    1200	     5.745
  50.160	        38	    1200	     6.164
  50.180	        28	    1200	     5.292
  50.200	        40	    1200	     6.325
  50.220	        46	    1200	     6.782
  50.240	        42	    1200	     6.481
  50.260	        34	    1200	     5.831
  50.280	        40	    1200	     6.325
  50.300	        40	    1200	     6.325
  50.320	        34	    1200	     5.831
  50.340	        46	    1200	     6.782
  50.360	        44	    1200	     6.633
  50.380	        39	    1200	     6.245
  50.400	        32	    1200	     5.657
  50.420	        33	    1200	     5.745
  50.440	        32	    1200	     5.657
  50.460	        37	    1200	     6.083
  50.480	        51	    1200	     7.141
  50.500	        29	    1200	     5.385
  50.520	        38	    1200	     6.164
  50.540	        21	    1200	     4.583
  50.560	        39	    1200	     6.245
  50.580	        38	    1200	     6.164
  50.600	        35	    1200	     5.916
  50.620	        22	    1200	     4.690
  50.640	        34	    1200	     5.831
  50.660	        46	    1200	     6.782
  50.680	        46	    1200	     6.782
  50.700	        39	    1200	     6.245
  50.720	        31	    1200	     5.568
  50.740	        38	    1200	     6.164
  50.760	        40	    1200	     6.325
  50.780	        37	    1200	     6.083
  50.800	        35	    1200	     5.916
  50.820	        31	    1200	     5.568
  50.840	        31	    1200	     5.568
  50.860	        41	    1200	     6.403
  50.880	        46	    1200	     6.782
  50.900	        31	    1200	     5.568
  50.920	        31	    1200	     5.568
  50.940	        36	    1200	     6.000
  50.960	        32	    1200	     5.657
  50.980	        37	    1200	     6.083
  51.000	        32	    1200	     5.657
  51.020	        31	    1200	     5.568
  51.040	        47	    1200	     6.856
  51.060	        42	    1200	     6.481
  51.080	        28	    1200	     5.292
  51.100	        35	    1200	     5.916
  51.120	        39	    1200	     6.245
  51.140	        39	    1200	     6.245
  51.160	        58	    1200	     7.616
  51.180	        59	    1200	     7.681
  51.200	        32	    1200	     5.657
  51.220	        36	    1200	     6.000
  51.240	        35	    1200	     5.916
  51.260	        39	    1200	     6.245
  51.280	        46	    1200	     6.782
  51.300	        41	    1200	     6.403
  51.320	        33	    1200	     5.745
  51.340	        35	    1200	     5.916
  51.360	        24	    1200	     4.899
  51.380	        38	    1200	     6.164
  51.400	        30	    1200	     5.477
  51.420	        30	    1200	     5.477
  51.440	        34	    1200	     5.831
  51.460	        38	    1200	     6.164
  51.480	        33	    1200	     5.745
  51.500	        25	    1200	     5.000
  51.520	        46	    1200	     6.782
  51.540	        38	    1200	     6.164
  51.560	        37	    1200	     6.083
  51.580	        28	    1200	     5.292
  51.600	        36	    1200	     6.000
  51.620	        39	    1200	     6.245
  51.640	        46	    1200	     6.782
  51.660	        32	    1200	     5.657
  51.680	        28	    1200	     5.292
  51.700	        46	    1200	     6.782
  51.720	        40	    1200	     6.325
  51.740	        38	    1200	     6.164
  51.760	        39	    1200	     6.245
  51.780	        36	    1200	     6.000
  51.800	        54	    1200	     7.348
  51.820	        42	    1200	     6.481
  51.840	        37	    1200	     6.083
  51.860	        35	    1200	     5.916
  51.880	        48	    1200	     6.928
  51.900	        46	    1200	     6.782
  51.920	        45	    1200	     6.708
  51.940	        41	    1200	     6.403
  51.960	        48	    1200	     6.928
  51.980	        49	    1200	     7.000
  52.000	        48	    1200	     6.928
  52.020	        38	    1200	     6.164
  52.040	        45	    1200	     6.708
  52.060	        72	    1200	     8.485
  52.080	        52	    1200	     7.211
  52.100	        60	    1200	     7.746
  52.120	        70	    1200	     8.367
  52.140	        77	    1200	     8.775
  52.160	        67	    1200	     8.185
  52.180	        66	    1200	     8.124
  52.200	        69	    1200	     8.307
  52.220	        82	    1200	     9.055
  52.240	        67	    1200	     8.185
  52.260	        75	    1200	     8.660
  52.280	        72	    1200	     8.485
  52.300	        67	    1200	     8.185
  52.320	        64	    1200	     8.000
  52.340	        69	    1200	     8.307
  52.360	        72	    1200	     8.485
  52.380	        73	    1200	     8.544
  52.400	        60	    1200	     7.746
  52.420	        67	    1200	     8.185
  52.440	        69	    1200	     8.307
  52.460	        72	    1200	     8.485
  52.480	        61	    1200	     7.810
  52.500	        56	    1200	     7.483
  52.520	        66	    1200	     8.124
  52.540	        68	    1200	     8.246
  52.560	        70	    1200	     8.367
  52.580	        81	    1200	     9.000
  52.600	        68	    1200	     8.246
  52.620	        54	    1200	     7.348
  52.640	        52	    1200	     7.211
  52.660	        54	    1200	     7.348
  52.680	        63	    1200	     7.937
  52.700	        52	    1200	     7.211
  52.720	        60	    1200	     7.746
  52.740	        55	    1200	     7.416
  52.760	        44	    1200	     6.633
  52.780	        53	    1200	     7.280
  52.800	        47	    1200	     6.856
  52.820	        41	    1200	     6.403
  52.840	        52	    1200	     7.211
  52.860	        40	    1200	     6.325
  52.880	        41	    1200	     6.403
  52.900	        43	    1200	     6.557
  52.920	        45	    1200	     6.708
  52.940	        45	    1200	     6.708
  52.960	        49	    1200	     7.000
  52.980	        34	    1200	     5.831
  53.000	        42	    1200	     6.481
  53.020	        48	    1200	     6.928
  53.040	        41	    1200	     6.403
  53.060	        42	    1200	     6.481
  53.080	        35	    1200	     5.916
  53.100	        37	    1200	     6.083
  53.120	        34	    1200	     5.831
  53.140	        32	    1200	     5.657
  53.160	        34	    1200	     5.831
  53.180	        34	    1200	     5.831
  53.200	        32	    1200	     5.657
  53.220	        35	    1200	     5.916
  53.240	        31	    1200	     5.568
  53.260	        43	    1200	     6.557
  53.280	        40	    1200	     6.325
  53.300	        24	    1200	     4.899
  53.320	        37	    1200	     6.083
  53.340	        39	    1200	     6.245
  53.360	        34	    1200	     5.831
  53.380	        37	    1200	     6.083
  53.400	        41	    1200	     6.403
  53.420	        40	    1200	     6.325
  53.440	        40	    1200	     6.325
  53.460	        36	    1200	     6.000
  53.480	        40	    1200	     6.325
  53.500	        34	    1200	     5.831
  53.520	        36	    1200	     6.000
  53.540	        24	    1200	     4.899
  53.560	        40	    1200	     6.325
  53.580	        44	    1200	     6.633
  53.600	        36	    1200	     6.000
  53.620	        29	    1200	     5.385
  53.640	        40	    1200	     6.325
  53.660	        52	    1200	     7.211
  53.680	        39	    1200	     6.245
  53.700	        29	    1200	     5.385
  53.720	        33	    1200	     5.745
  53.740	        38	    1200	     6.164
  53.760	        34	    1200	     5.831
  53.780	        36	    1200	     6.000
  53.800	        37	    1200	     6.083
  53.820	        45	    1200	     6.708
  53.840	        40	    1200	     6.325
  53.860	        33	    1200	     5.745
  53.880	        37	    1200	     6.083
  53.900	        40	    1200	     6.325
  53.920	        52	    1200	     7.211
  53.940	        35	    1200	     5.916
  53.960	        43	    1200	     6.557
  53.980	        41	    1200	     6.403
  54.000	        32	    1200	     5.657
  54.020	        34	    1200	     5.831
  54.040	        28	    1200	     5.292
  54.060	        30	    1200	     5.477
  54.080	        37	    1200	     6.083
  54.100	        39	    1200	     6.245
  54.120	        40	    1200	     6.325
  54.140	        44	    1200	     6.633
  54.160	        35	    1200	     5.916
  54.180	        44	    1200	     6.633
  54.200	        46	    1200	     6.782
  54.220	        40	    1200	     6.325
  54.240	        39	    1200	     6.245
  54.260	        37	    1200	     6.083
  54.280	        38	    1200	     6.164
  54.300	        41	    1200	     6.403
  54.320	        36	    1200	     6.000
  54.340	        44	    1200	     6.633
  54.360	        39	    1200	     6.245
  54.380	        54	    1200	     7.348
  54.400	        49	    1200	     7.000
  54.420	        29	    1200	     5.385
  54.440	        39	    1200	     6.245
  54.460	        42	    1200	     6.481
  54.480	        36	    1200	     6.000
  54.500	        38	    1200	     6.164
  54.520	        41	    1200	     6.403
  54.540	        41	    1200	     6.403
  54.560	        40	    1200	     6.325
  54.580	        35	    1200	     5.916
  54.600	        32	    1200	     5.657
  54.620	        45	    1200	     6.708
  54.640	        34	    1200	     5.831
  54.660	        33	    1200	     5.745
  54.680	        51	    1200	     7.141
  54.700	        39	    1200	     6.245
  54.720	        45	    1200	     6.708
  54.740	        38	    1200	     6.164
  54.760	        38	    1200	     6.164
  54.780	        35	    1200	     5.916
  54.800	        41	    1200	     6.403
  54.820	        49	    1200	     7.000
  54.840	        43	    1200	     6.557
  54.860	        39	    1200	     6.245
  54.880	        36	    1200	     6.000
  54.900	        50	    1200	     7.071
  54.920	        45	    1200	     6.708
  54.940	        47	    1200	     6.856
  54.960	        32	    1200	     5.657
  54.980	        42	    1200	     6.481
  55.000	        45	    1200	     6.708
  55.020	        30	    1200	     5.477
  55.040	        28	    1200	     5.292
  55.060	        44	    1200	     6.633
  55.080	        40	    1200	     6.325
  55.100	        40	    1200	     6.325
  55.120	        42	    1200	     6.481
  55.140	        38	    1200	     6.164
  55.160	        42	    1200	     6.481
  55.180	        39	    1200	     6.245
  55.200	        47	    1200	     6.856
  55.220	        37	    1200	     6.083
  55.240	        42	    1200	     6.481
  55.260	        42	    1200	     6.481
  55.280	        49	    1200	     7.000
  55.300	        47	    1200	     6.856
  55.320	        40	    1200	     6.325
  55.340	        36	    1200	     6.000
  55.360	        41	    1200	     6.403
  55.380	        41	    1200	     6.403
  55.400	        27	    1200	     5.196
  55.420	        42	    1200	     6.481
  55.440	        45	    1200	     6.708
  55.460	        38	    1200	     6.164
  55.480	        41	    1200	     6.403
  55.500	        39	    1200	     6.245
  55.520	        49	    1200	     7.000
  55.540	        39	    1200	     6.245
  55.560	        37	    1200	     6.083
  55.580	        35	    1200	     5.916
  55.600	        37	    1200	     6.083
  55.620	        33	    1200	     5.745
  55.640	        31	    1200	     5.568
  55.660	        48	    1200	     6.928
  55.680	        30	    1200	     5.477
  55.700	        56	    1200	     7.483
  55.720	        37	    1200	     6.083
  55.740	        48	    1200	     6.928
  55.760	        45	    1200	     6.708
  55.780	        43	    1200	     6.557
  55.800	        40	    1200	     6.325
  55.820	        56	    1200	     7.483
  55.840	        53	    1200	     7.280
  55.860	        41	    1200	     6.403
  55.880	        42	    1200	     6.481
  55.900	        41	    1200	     6.403
  55.920	        46	    1200	     6.782
  55.940	        46	    1200	     6.782
  55.960	        34	    1200	     5.831
  55.980	        42	    1200	     6.481
  56.000	        47	    1200	     6.856
  56.020	        54	    1200	     7.348
  56.040	        46	    1200	     6.782
  56.060	        43	    1200	     6.557
  56.080	        41	    1200	     6.403
  56.100	        56	    1200	     7.483
  56.120	        42	    1200	     6.481
  56.140	        43	    1200	     6.557
  56.160	        43	    1200	     6.557
  56.180	        56	    1200	     7.483
  56.200	        53	    1200	     7.280
  56.220	        47	    1200	     6.856
  56.240	        40	    1200	     6.325
  56.260	        39	    1200	     6.245
  56.280	        39	    1200	     6.245
  56.300	        54	    1200	     7.348
  56.320	        37	    1200	     6.083
  56.340	        45	    1200	     6.708
  56.360	        41	    1200	     6.403
  56.380	        57	    1200	     7.550
  56.400	        51	    1200	     7.141
  56.420	        46	    1200	     6.782
  56.440	        45	    1200	     6.708
  56.460	        53	    1200	     7.280
  56.480	        35	    1200	     5.916
  56.500	        54	    1200	     7.348
  56.520	        53	    1200	     7.280
  56.540	        58	    1200	     7.616
  56.560	        57	    1200	     7.550
  56.580	        47	    1200	     6.856
  56.600	        41	    1200	     6.403
  56.620	        53	    1200	     7.280
  56.640	        51	    1200	     7.141
  56.660	        50	    1200	     7.071
  56.680	        38	    1200	     6.164
  56.700	        50	    1200	     7.071
  56.720	        51	    1200	     7.141
  56.740	        48	    1200	     6.928
  56.760	        53	    1200	     7.280
  56.780	        47	    1200	     6.856
  56.800	        47	    1200	     6.856
  56.820	        57	    1200	     7.550
  56.840	        58	    1200	     7.616
  56.860	        60	    1200	     7.746
  56.880	        60	    1200	     7.746
  56.900	        58	    1200	     7.616
  56.920	        57	    1200	     7.550
  56.940	        65	    1200	     8.062
  56.960	        54	    1200	     7.348
  56.980	        64	    1200	     8.000
  57.000	        66	    1200	     8.124
  57.020	        86	    1200	     9.274
  57.040	        72	    1200	     8.485
  57.060	        52	    1200	     7.211
  57.080	        70	    1200	     8.367
  57.100	        84	    1200	     9.165
  57.120	        79	    1200	     8.888
  57.140	        70	    1200	     8.367
  57.160	        66	    1200	     8.124
  57.180	        69	    1200	     8.307
  57.200	        75	    1200	     8.660
  57.220	        93	    1200	     9.644
  57.240	        96	    1200	     9.798
  57.260	        87	    1200	     9.327
  57.280	       110	    1200	    10.488
  57.300	       120	    1200	    10.954
  57.320	       132	    1200	    11.489
  57.340	       128	    1200	    11.314
  57.360	       143	    1200	    11.958
  57.380	       147	    1200	    12.124
  57.400	       180	    1200	    13.416
  57.420	       192	    1200	    13.856
  57.440	       227	    1200	    15.067
  57.460	       247	    1200	    15.716
  57.480	       264	    1200	    16.248
  57.500	       316	    1200	    17.776
  57.520	       351	    1200	    18.735
  57.540	       392	    1200	    19.799
  57.560	       425	    1200	    20.616
  57.580	       463	    1200	    21.517
  57.600	       475	    1200	    21.794
  57.620	       476	    1200	    21.817
  57.640	       550	    1200	    23.452
  57.660	       563	    1200	    23.728
  57.680	       559	    1200	    23.643
  57.700	       558	    1200	    23.622
  57.720	       569	    1200	    23.854
  57.740	       575	    1200	    23.979
  57.760	       588	    1200	    24.249
  57.780	       576	    1200	    24.000
  57.800	       604	    1200	    24.576
  57.820	       597	    1200	    24.434
  57.840	       619	    1200	    24.880
  57.860	       613	    1200	    24.759
  57.880	       586	    1200	    24.207
  57.900	       604	    1200	    24.576
  57.920	       629	    1200	    25.080
  57.940	       661	    1200	    25.710
  57.960	       621	    1200	    24.920
  57.980	       726	    1200	    26.944
  58.000	       672	    1200	    25.923
  58.020	       643	    1200	    25.357
  58.040	       690	    1200	    26.268
  58.060	       672	    1200	    25.923
  58.080	       696	    1200	    26.382
  58.100	       675	    1200	    25.981
  58.120	       616	    1200	    24.819
  58.140	       586	    1200	    24.207
  58.160	       597	    1200	    24.434
  58.180	       509	    1200	    22.561
  58.200	       474	    1200	    21.772
  58.220	       460	    1200	    21.448
  58.240	       458	    1200	    21.401
  58.260	       391	    1200	    19.774
  58.280	       348	    1200	    18.655
  58.300	       304	    1200	    17.436
  58.320	       288	    1200	    16.971
  58.340	       275	    1200	    16.583
  58.360	       218	    1200	    14.765
  58.380	       194	    1200	    13.928
  58.400	       185	    1200	    13.601
  58.420	       179	    1200	    13.379
  58.440	       137	    1200	    11.705
  58.460	       134	    1200	    11.576
  58.480	       130	    1200	    11.402
  58.500	       134	    1200	    11.576
  58.520	       104	    1200	    10.198
  58.540	       100	    1200	    10.000
  58.560	       108	    1200	    10.392
  58.580	        88	    1200	     9.381
  58.600	        83	    1200	     9.110
  58.620	        59	    1200	     7.681
  58.640	        70	    1200	     8.367
  58.660	        70	    1200	     8.367
  58.680	        86	    1200	     9.274
  58.700	        74	    1200	     8.602
  58.720	        51	    1200	     7.141
  58.740	        65	    1200	     8.062
  58.760	        60	    1200	     7.746
  58.780	        55	    1200	     7.416
  58.800	        70	    1200	     8.367
  58.820	        50	    1200	     7.071
  58.840	        62	    1200	     7.874
  58.860	        57	    1200	     7.550
  58.880	        52	    1200	     7.211
  58.900	        55	    1200	     7.416
  58.920	        53	    1200	     7.280
  58.940	        61	    1200	     7.810
  58.960	        66	    1200	     8.124
  58.980	        45	    1200	     6.708
  59.000	        50	    1200	     7.071
  59.020	        50	    1200	     7.071
  59.040	        41	    1200	     6.403
  59.060	        44	    1200	     6.633
  59.080	        50	    1200	     7.071
  59.100	        51	    1200	     7.141
  59.120	        53	    1200	     7.280
  59.140	        44	    1200	     6.633
  59.160	        52	    1200	     7.211
  59.180	        47	    1200	     6.856
  59.200	        53	    1200	     7.280
  59.220	        48	    1200	     6.928
  59.240	        43	    1200	     6.557
  59.260	        55	    1200	     7.416
  59.280	        35	    1200	     5.916
  59.300	        64	    1200	     8.000
  59.320	        33	    1200	     5.745
  59.340	        46	    1200	     6.782
  59.360	        44	    1200	     6.633
  59.380	        43	    1200	     6.557
  59.400	        38	    1200	     6.164
  59.420	        49	    1200	     7.000
  59.440	        54	    1200	     7.348
  59.460	        38	    1200	     6.164
  59.480	        43	    1200	     6.557
  59.500	        44	    1200	     6.633
  59.520	        58	    1200	     7.616
  59.540	        46	    1200	     6.782
  59.560	        45	    1200	     6.708
  59.580	        45	    1200	     6.708
  59.600	        40	    1200	     6.325
  59.620	        37	    1200	     6.083
  59.640	        38	    1200	     6.164
  59.660	        39	    1200	     6.245
  59.680	        40	    1200	     6.325
  59.700	        42	    1200	     6.481
  59.720	        40	    1200	     6.325
  59.740	        33	    1200	     5.745
  59.760	        42	    1200	     6.481
  59.780	        50	    1200	     7.071
  59.800	        50	    1200	     7.071
  59.820	        41	    1200	     6.403
  59.840	        40	    1200	     6.325
  59.860	        48	    1200	     6.928
  59.880	        52	    1200	     7.211
  59.900	        40	    1200	     6.325
  59.920	        43	    1200	     6.557
  59.940	        39	    1200	     6.245
  59.960	        43	    1200	     6.557
  59.980	        43	    1200	     6.557
  60.000	        45	    1200	     6.708
  60.020	        34	    1200	     5.831
  60.040	        41	    1200	     6.403
  60.060	        46	    1200	     6.782
  60.080	        40	    1200	     6.325
  60.100	        35	    1200	     5.916
  60.120	        38	    1200	     6.164
  60.140	        44	    1200	     6.633
  60.160	        46	    1200	     6.782
  60.180	        37	    1200	     6.083
  60.200	        46	    1200	     6.782
  60.220	        37	    1200	     6.083
  60.240	        45	    1200	     6.708
  60.260	        34	    1200	     5.831
  60.280	        43	    1200	     6.557
  60.300	        47	    1200	     6.856
  60.320	        41	    1200	     6.403
  60.340	        43	    1200	     6.557
  60.360	        32	    1200	     5.657
  60.380	        49	    1200	     7.000
  60.400	        36	    1200	     6.000
  60.420	        39	    1200	     6.245
  60.440	        38	    1200	     6.164
  60.460	        40	    1200	     6.325
  60.480	        35	    1200	     5.916
  60.500	        49	    1200	     7.000
  60.520	        34	    1200	     5.831
  60.540	        46	    1200	     6.782
  60.560	        38	    1200	     6.164
  60.580	        42	    1200	     6.481
  60.600	        46	    1200	     6.782
  60.620	        45	    1200	     6.708
  60.640	        41	    1200	     6.403
  60.660	        40	    1200	     6.325
  60.680	        34	    1200	     5.831
  60.700	        49	    1200	     7.000
  60.720	        55	    1200	     7.416
  60.740	        40	    1200	     6.325
  60.760	        45	    1200	     6.708
  60.780	        54	    1200	     7.348
  60.800	        44	    1200	     6.633
  60.820	        29	    1200	     5.385
  60.840	        45	    1200	     6.708
  60.860	        47	    1200	     6.856
  60.880	        46	    1200	     6.782
  60.900	        33	    1200	     5.745
  60.920	        48	    1200	     6.928
  60.940	        43	    1200	     6.557
  60.960	        42	    1200	     6.481
  60.980	        42	    1200	     6.481
  61.000	        39	    1200	     6.245
  61.020	        44	    1200	     6.633
  61.040	        37	    1200	     6.083
  61.060	        42	    1200	     6.481
  61.080	        44	    1200	     6.633
  61.100	        28	    1200	     5.292
  61.120	        44	    1200	     6.633
  61.140	        45	    1200	     6.708
  61.160	        40	    1200	     6.325
  61.180	        48	    1200	     6.928
  61.200	        40	    1200	     6.325
  61.220	        35	    1200	     5.916
  61.240	        40	    1200	     6.325
  61.260	        47	    1200	     6.856
  61.280	        32	    1200	     5.657
  61.300	        43	    1200	     6.557
  61.320	        32	    1200	     5.657
  61.340	        37	    1200	     6.083
  61.360	        28	    1200	     5.292
  61.380	        48	    1200	     6.928
  61.400	        38	    1200	     6.164
  61.420	        36	    1200	     6.000
  61.440	        34	    1200	     5.831
  61.460	        37	    1200	     6.083
  61.480	        35	    1200	     5.916
  61.500	        37	    1200	     6.083
  61.520	        31	    1200	     5.568
  61.540	        43	    1200	     6.557
  61.560	        29	    1200	     5.385
  61.580	        51	    1200	     7.141
  61.600	        43	    1200	     6.557
  61.620	        40	    1200	     6.325
  61.640	        39	    1200	     6.245
  61.660	        41	    1200	     6.403
  61.680	        41	    1200	     6.403
  61.700	        48	    1200	     6.928
  61.720	        42	    1200	     6.481
  61.740	        36	    1200	     6.000
  61.760	        39	    1200	     6.245
  61.780	        41	    1200	     6.403
  61.800	        31	    1200	     5.568
  61.820	        29	    1200	     5.385
  61.840	        33	    1200	     5.745
  61.860	        34	    1200	     5.831
  61.880	        46	    1200	     6.782
  61.900	        34	    1200	     5.831
  61.920	        23	    1200	     4.796
  61.940	        37	    1200	     6.083
  61.960	        41	    1200	     6.403
  61.980	        28	    1200	     5.292
  62.000	        53	    1200	     7.280
  62.020	        39	    1200	     6.245
  62.040	        38	    1200	     6.164
  62.060	        44	    1200	     6.633
  62.080	        42	    1200	     6.481
  62.100	        31	    1200	     5.568
  62.120	        46	    1200	     6.782
  62.140	        30	    1200	     5.477
  62.160	        44	    1200	     6.633
  62.180	        39	    1200	     6.245
  62.200	        48	    1200	     6.928
  62.220	        28	    1200	     5.292
  62.240	        38	    1200	     6.164
  62.260	        51	    1200	     7.141
  62.280	        33	    1200	     5.745
  62.300	        28	    1200	     5.292
  62.320	        42	    1200	     6.481
  62.340	        43	    1200	     6.557
  62.360	        36	    1200	     6.000
  62.380	        37	    1200	     6.083
  62.400	        35	    1200	     5.916
  62.420	        40	    1200	     6.325
  62.440	        36	    1200	     6.000
  62.460	        48	    1200	     6.928
  62.480	        41	    1200	     6.403
  62.500	        39	    1200	     6.245
  62.520	        28	    1200	     5.292
  62.540	        37	    1200	     6.083
  62.560	        50	    1200	     7.071
  62.580	        47	    1200	     6.856
  62.600	        40	    1200	     6.325
  62.620	        33	    1200	     5.745
  62.640	        34	    1200	     5.831
  62.660	        35	    1200	     5.916
  62.680	        30	    1200	     5.477
  62.700	        30	    1200	     5.477
  62.720	        42	    1200	     6.481
  62.740	        27	    1200	     5.196
  62.760	        45	    1200	     6.708
  62.780	        38	    1200	     6.164
  62.800	        33	    1200	     5.745
  62.820	        44	    1200	     6.633
  62.840	        35	    1200	     5.916
  62.860	        29	    1200	     5.385
  62.880	        33	    1200	     5.745
  62.900	        48	    1200	     6.928
  62.920	        39	    1200	     6.245
  62.940	        38	    1200	     6.164
  62.960	        37	    1200	     6.083
  62.980	        46	    1200	     6.782
  63.000	        43	    1200	     6.557
  63.020	        40	    1200	     6.325
  63.040	        43	    1200	     6.557
  63.060	        47	    1200	     6.856
  63.080	        35	    1200	     5.916
  63.100	        29	    1200	     5.385
  63.120	        37	    1200	     6.083
  63.140	        41	    1200	     6.403
  63.160	        35	    1200	     5.916
  63.180	        33	    1200	     5.745
  63.200	        41	    1200	     6.403
  63.220	        27	    1200	     5.196
  63.240	        32	    1200	     5.657
  63.260	        37	    1200	     6.083
  63.280	        36	    1200	     6.000
  63.300	        43	    1200	     6.557
  63.320	        41	    1200	     6.403
  63.340	        41	    1200	     6.403
  63.360	        43	    1200	     6.557
  63.380	        36	    1200	     6.000
  63.400	        30	    1200	     5.477
  63.420	        46	    1200	     6.782
  63.440	        35	    1200	     5.916
  63.460	        32	    1200	     5.657
  63.480	        33	    1200	     5.745
  63.500	        39	    1200	     6.245
  63.520	        33	    1200	     5.745
  63.540	        42	    1200	     6.481
  63.560	        33	    1200	     5.745
  63.580	        38	    1200	     6.164
  63.600	        31	    1200	     5.568
  63.620	        41	    1200	     6.403
  63.640	        44	    1200	     6.633
  63.660	        63	    1200	     7.937
  63.680	        35	    1200	     5.916
  63.700	        37	    1200	     6.083
  63.720	        30	    1200	     5.477
  63.740	        41	    1200	     6.403
  63.760	        42	    1200	     6.481
  63.780	        24	    1200	     4.899
  63.800	        28	    1200	     5.292
  63.820	        38	    1200	     6.164
  63.840	        28	    1200	     5.292
  63.860	        32	    1200	     5.657
  63.880	        41	    1200	     6.403
  63.900	        44	    1200	     6.633
  63.920	        34	    1200	     5.831
  63.940	        37	    1200	     6.083
  63.960	        30	    1200	     5.477
  63.980	        40	    1200	     6.325
  64.000	        26	    1200	     5.099
  64.020	        46	    1200	     6.782
  64.040	        36	    1200	     6.000
  64.060	        39	    1200	     6.245
  64.080	        39	    1200	     6.245
  64.100	        51	    1200	     7.141
  64.120	        36	    1200	     6.000
  64.140	        38	    1200	     6.164
  64.160	        50	    1200	     7.071
  64.180	        43	    1200	     6.557
  64.200	        36	    1200	     6.000
  64.220	        43	    1200	     6.557
  64.240	        32	    1200	     5.657
  64.260	        40	    1200	     6.325
  64.280	        34	    1200	     5.831
  64.300	        40	    1200	     6.325
  64.320	        38	    1200	     6.164
  64.340	        49	    1200	     7.000
  64.360	        34	    1200	     5.831
  64.380	        41	    1200	     6.403
  64.400	        36	    1200	     6.000
  64.420	        34	    1200	     5.831
  64.440	        36	    1200	     6.000
  64.460	        23	    1200	     4.796
  64.480	        48	    1200	     6.928
  64.500	        32	    1200	     5.657
  64.520	        30	    1200	     5.477
  64.540	        31	    1200	     5.568
  64.560	        45	    1200	     6.708
  64.580	        33	    1200	     5.745
  64.600	        37	    1200	     6.083
  64.620	        34	    1200	     5.831
  64.640	        40	    1200	     6.325
  64.660	        36	    1200	     6.000
  64.680	        49	    1200	     7.000
  64.700	        39	    1200	     6.245
  64.720	        31	    1200	     5.568
  64.740	        37	    1200	     6.083
  64.760	        46	    1200	     6.782
  64.780	        41	    1200	     6.403
  64.800	        31	    1200	     5.568
  64.820	        24	    1200	     4.899
  64.840	        33	    1200	     5.745
  64.860	        43	    1200	     6.557
  64.880	        35	    1200	     5.916
  64.900	        28	    1200	     5.292
  64.920	        34	    1200	     5.831
  64.940	        41	    1200	     6.403
  64.960	        42	    1200	     6.481
  64.980	        35	    1200	     5.916
  65.000	        36	    1200	     6.000
  65.020	        39	    1200	     6.245
  65.040	        34	    1200	     5.831
  65.060	        40	    1200	     6.325
  65.080	        27	    1200	     5.196
  65.100	        40	    1200	     6.325
  65.120	        44	    1200	     6.633
  65.140	        41	    1200	     6.403
  65.160	        44	    1200	     6.633
  65.180	        44	    1200	     6.633
  65.200	        35	    1200	     5.916
  65.220	        34	    1200	     5.831
  65.240	        27	    1200	     5.196
  65.260	        39	    1200	     6.245
  65.280	        43	    1200	     6.557
  65.300	        43	    1200	     6.557
  65.320	        44	    1200	     6.633
  65.340	        37	    1200	     6.083
  65.360	        41	    1200	     6.403
  65.380	        44	    1200	     6.633
  65.400	        37	    1200	     6.083
  65.420	        34	    1200	     5.831
  65.440	        41	    1200	     6.403
  65.460	        48	    1200	     6.928
  65.480	        31	    1200	     5.568
  65.500	        43	    1200	     6.557
  65.520	        39	    1200	     6.245
  65.540	        29	    1200	     5.385
  65.560	        40	    1200	     6.325
  65.580	        57	    1200	     7.550
  65.600	        40	    1200	     6.325
  65.620	        39	    1200	     6.245
  65.640	        41	    1200	     6.403
  65.660	        34	    1200	     5.831
  65.680	        53	    1200	     7.280
  65.700	        45	    1200	     6.708
  65.720	        28	    1200	     5.292
  65.740	        22	    1200	     4.690
  65.760	        35	    1200	     5.916
  65.780	        34	    1200	     5.831
  65.800	        33	    1200	     5.745
  65.820	        38	    1200	     6.164
  65.840	        43	    1200	     6.557
  65.860	        50	    1200	     7.071
  65.880	        36	    1200	     6.000
  65.900	        31	    1200	     5.568
  65.920	        50	    1200	     7.071
  65.940	        46	    1200	     6.782
  65.960	        42	    1200	     6.481
  65.980	        29	    1200	     5.385
  66.000	        32	    1200	     5.657
  66.020	        54	    1200	     7.348
  66.040	        40	    1200	     6.325
  66.060	        37	    1200	     6.083
  66.080	        41	    1200	     6.403
  66.100	        49	    1200	     7.000
  66.120	        39	    1200	     6.245
  66.140	        36	    1200	     6.000
  66.160	        43	    1200	     6.557
  66.180	        39	    1200	     6.245
  66.200	        35	    1200	     5.916
  66.220	        42	    1200	     6.481
  66.240	        39	    1200	     6.245
  66.260	        48	    1200	     6.928
  66.280	        36	    1200	     6.000
  66.300	        37	    1200	     6.083
  66.320	        38	    1200	     6.164
  66.340	        42	    1200	     6.481
  66.360	        37	    1200	     6.083
  66.380	        38	    1200	     6.164
  66.400	        45	    1200	     6.708
  66.420	        35	    1200	     5.916
  66.440	        45	    1200	     6.708
  66.460	        44	    1200	     6.633
  66.480	        41	    1200	     6.403
  66.500	        51	    1200	     7.141
  66.520	        40	    1200	     6.325
  66.540	        43	    1200	     6.557
  66.560	        39	    1200	     6.245
  66.580	        37	    1200	     6.083
  66.600	        51	    1200	     7.141
  66.620	        41	    1200	     6.403
  66.640	        45	    1200	     6.708
  66.660	        51	    1200	     7.141
  66.680	        46	    1200	     6.782
  66.700	        47	    1200	     6.856
  66.720	        58	    1200	     7.616
  66.740	        54	    1200	     7.348
  66.760	        40	    1200	     6.325
  66.780	        42	    1200	     6.481
  66.800	        55	    1200	     7.416
  66.820	        41	    1200	     6.403
  66.840	        46	    1200	     6.782
  66.860	        43	    1200	     6.557
  66.880	        49	    1200	     7.000
  66.900	        43	    1200	     6.557
  66.920	        52	    1200	     7.211
  66.940	        58	    1200	     7.616
  66.960	        47	    1200	     6.856
  66.980	        57	    1200	     7.550
  67.000	        37	    1200	     6.083
  67.020	        42	    1200	     6.481
  67.040	        69	    1200	     8.307
  67.060	        38	    1200	     6.164
  67.080	        39	    1200	     6.245
  67.100	        49	    1200	     7.000
  67.120	        49	    1200	     7.000
  67.140	        60	    1200	     7.746
  67.160	        53	    1200	     7.280
  67.180	        60	    1200	     7.746
  67.200	        75	    1200	     8.660
  67.220	        59	    1200	     7.681
  67.240	        57	    1200	     7.550
  67.260	        70	    1200	     8.367
  67.280	        75	    1200	     8.660
  67.300	        61	    1200	     7.810
  67.320	        72	    1200	     8.485
  67.340	        64	    1200	     8.000
  67.360	        85	    1200	     9.220
  67.380	        92	    1200	     9.592
  67.400	       102	    1200	    10.100
  67.420	       116	    1200	    10.770
  67.440	       110	    1200	    10.488
  67.460	       116	    1200	    10.770
  67.480	       135	    1200	    11.619
  67.500	       150	    1200	    12.247
  67.520	       157	    1200	    12.530
  67.540	       168	    1200	    12.961
  67.560	       196	    1200	    14.000
  67.580	       222	    1200	    14.900
  67.600	       207	    1200	    14.387
  67.620	       252	    1200	    15.875
  67.640	       267	    1200	    16.340
  67.660	       290	    1200	    17.029
  67.680	       265	    1200	    16.279
  67.700	       282	    1200	    16.793
  67.720	       281	    1200	    16.763
  67.740	       256	    1200	    16.000
  67.760	       261	    1200	    16.155
  67.780	       318	    1200	    17.833
  67.800	       276	    1200	    16.613
  67.820	       316	    1200	    17.776
  67.840	       297	    1200	    17.234
  67.860	       304	    1200	    17.436
  67.880	       311	    1200	    17.635
  67.900	       301	    1200	    17.349
  67.920	       295	    1200	    17.176
  67.940	       309	    1200	    17.578
  67.960	       308	    1200	    17.550
  67.980	       257	    1200	    16.031
  68.000	       342	    1200	    18.493
  68.020	       306	    1200	    17.493
  68.040	       321	    1200	    17.916
  68.060	       291	    1200	    17.059
  68.080	       348	    1200	    18.655
  68.100	       309	    1200	    17.578
  68.120	       345	    1200	    18.574
  68.140	       333	    1200	    18.248
  68.160	       288	    1200	    16.971
  68.180	       288	    1200	    16.971
  68.200	       287	    1200	    16.941
  68.220	       304	    1200	    17.436
  68.240	       326	    1200	    18.055
  68.260	       291	    1200	    17.059
  68.280	       303	    1200	    17.407
  68.300	       257	    1200	    16.031
  68.320	       246	    1200	    15.684
  68.340	       227	    1200	    15.067
  68.360	       251	    1200	    15.843
  68.380	       235	    1200	    15.330
  68.400	       222	    1200	    14.900
  68.420	       212	    1200	    14.560
  68.440	       176	    1200	    13.266
  68.460	       169	    1200	    13.000
  68.480	       178	    1200	    13.342
  68.500	       144	    1200	    12.000
  68.520	       131	    1200	    11.446
  68.540	       125	    1200	    11.180
  68.560	       110	    1200	    10.488
  68.580	       118	    1200	    10.863
  68.600	        98	    1200	     9.899
  68.620	       113	    1200	    10.630
  68.640	        93	    1200	     9.644
  68.660	        81	    1200	     9.000
  68.680	        68	    1200	     8.246
  68.700	        68	    1200	     8.246
  68.720	        63	    1200	     7.937
  68.740	        62	    1200	     7.874
  68.760	        55	    1200	     7.416
  68.780	        73	    1200	     8.544
  68.800	        54	    1200	     7.348
  68.820	        60	    1200	     7.746
  68.840	        51	    1200	     7.141
  68.860	        52	    1200	     7.211
  68.880	        46	    1200	     6.782
  68.900	        54	    1200	     7.348
  68.920	        55	    1200	     7.416
  68.940	        48	    1200	     6.928
  68.960	        40	    1200	     6.325
  68.980	        52	    1200	     7.211
  69.000	        63	    1200	     7.937
  69.020	        57	    1200	     7.550
  69.040	        43	    1200	     6.557
  69.060	        50	    1200	     7.071
  69.080	        40	    1200	     6.325
  69.100	        34	    1200	     5.831
  69.120	        37	    1200	     6.083
  69.140	        51	    1200	     7.141
  69.160	        45	    1200	     6.708
  69.180	        40	    1200	     6.325
  69.200	        29	    1200	     5.385
  69.220	        43	    1200	     6.557
  69.240	        53	    1200	     7.280
  69.260	        35	    1200	     5.916
  69.280	        39	    1200	     6.245
  69.300	        44	    1200	     6.633
  69.320	        33	    1200	     5.745
  69.340	        39	    1200	     6.245
  69.360	        42	    1200	     6.481
  69.380	        18	    1200	     4.243
  69.400	        38	    1200	     6.164
  69.420	        47	    1200	     6.856
  69.440	        34	    1200	     5.831
  69.460	        34	    1200	     5.831
  69.480	        44	    1200	     6.633
  69.500	        31	    1200	     5.568
  69.520	        43	    1200	     6.557
  69.540	        38	    1200	     6.164
  69.560	        35	    1200	     5.916
  69.580	        44	    1200	     6.633
  69.600	        40	    1200	     6.325
  69.620	        36	    1200	     6.000
  69.640	        29	    1200	     5.385
  69.660	        37	    1200	     6.083
  69.680	        32	    1200	     5.657
  69.700	        31	    1200	     5.568
  69.720	        32	    1200	     5.657
  69.740	        37	    1200	     6.083
  69.760	        49	    1200	     7.000
  69.780	        41	    1200	     6.403
  69.800	        46	    1200	     6.782
  69.820	        39	    1200	     6.245
  69.840	        36	    1200	     6.000
  69.860	        36	    1200	     6.000
  69.880	        42	    1200	     6.481
  69.900	        38	    1200	     6.164
  69.920	        37	    1200	     6.083
  69.940	        26	    1200	     5.099
  69.960	        34	    1200	     5.831
  69.980	        44	    1200	     6.633
  70.000	        43	    1200	     6.557
  70.020	        40	    1200	     6.325
  70.040	        34	    1200	     5.831
  70.060	        41	    1200	     6.403
  70.080	        37	    1200	     6.083
  70.100	        27	    1200	     5.196
  70.120	        40	    1200	     6.325
  70.140	        50	    1200	     7.071
  70.160	        35	    1200	     5.916
  70.180	        48	    1200	     6.928
  70.200	        35	    1200	     5.916
  70.220	        45	    1200	     6.708
  70.240	        39	    1200	     6.245
  70.260	        42	    1200	     6.481
  70.280	        42	    1200	     6.481
  70.300	        31	    1200	     5.568
  70.320	        39	    1200	     6.245
  70.340	        24	    1200	     4.899
  70.360	        30	    1200	     5.477
  70.380	        42	    1200	     6.481
  70.400	        28	    1200	     5.292
  70.420	        51	    1200	     7.141
  70.440	        32	    1200	     5.657
  70.460	        36	    1200	     6.000
  70.480	        37	    1200	     6.083
  70.500	        41	    1200	     6.403
  70.520	        45	    1200	     6.708
  70.540	        38	    1200	     6.164
  70.560	        41	    1200	     6.403
  70.580	        38	    1200	     6.164
  70.600	        53	    1200	     7.280
  70.620	        38	    1200	     6.164
  70.640	        35	    1200	     5.916
  70.660	        37	    1200	     6.083
  70.680	        46	    1200	     6.782
  70.700	        40	    1200	     6.325
  70.720	        34	    1200	     5.831
  70.740	        40	    1200	     6.325
  70.760	        28	    1200	     5.292
  70.780	        31	    1200	     5.568
  70.800	        24	    1200	     4.899
  70.820	        42	    1200	     6.481
  70.840	        29	    1200	     5.385
  70.860	        42	    1200	     6.481
  70.880	        37	    1200	     6.083
  70.900	        33	    1200	     5.745
  70.920	        38	    1200	     6.164
  70.940	        30	    1200	     5.477
  70.960	        36	    1200	     6.000
  70.980	        39	    1200	     6.245
  71.000	        39	    1200	     6.245
  71.020	        22	    1200	     4.690
  71.040	        30	    1200	     5.477
  71.060	        36	    1200	     6.000
  71.080	        37	    1200	     6.083
  71.100	        34	    1200	     5.831
  71.120	        27	    1200	     5.196
  71.140	        28	    1200	     5.292
  71.160	        33	    1200	     5.745
  71.180	        47	    1200	     6.856
  71.200	        34	    1200	     5.831
  71.220	        31	    1200	     5.568
  71.240	        34	    1200	     5.831
  71.260	        37	    1200	     6.083
  71.280	        35	    1200	     5.916
  71.300	        42	    1200	     6.481
  71.320	        41	    1200	     6.403
  71.340	        29	    1200	     5.385
  71.360	        28	    1200	     5.292
  71.380	        34	    1200	     5.831
  71.400	        33	    1200	     5.745
  71.420	        32	    1200	     5.657
  71.440	        30	    1200	     5.477
  71.460	        31	    1200	     5.568
  71.480	        29	    1200	     5.385
  71.500	        40	    1200	     6.325
  71.520	        39	    1200	     6.245
  71.540	        36	    1200	     6.000
  71.560	        42	    1200	     6.481
  71.580	        35	    1200	     5.916
  71.600	        36	    1200	     6.000
  71.620	        30	    1200	     5.477
  71.640	        33	    1200	     5.745
  71.660	        33	    1200	     5.745
  71.680	        43	    1200	     6.557
  71.700	        42	    1200	     6.481
  71.720	        22	    1200	     4.690
  71.740	        30	    1200	     5.477
  71.760	        33	    1200	     5.745
  71.780	        28	    1200	     5.292
  71.800	        38	    1200	     6.164
  71.820	        36	    1200	     6.000
  71.840	        37	    1200	     6.083
  71.860	        37	    1200	     6.083
  71.880	        31	    1200	     5.568
  71.900	        46	    1200	     6.782
  71.920	        23	    1200	     4.796
  71.940	        24	    1200	     4.899
  71.960	        38	    1200	     6.164
  71.980	        36	    1200	     6.000
  72.000	        31	    1200	     5.568
  72.020	        38	    1200	     6.164
  72.040	        42	    1200	     6.481
  72.060	        44	    1200	     6.633
  72.080	        32	    1200	     5.657
  72.100	        49	    1200	     7.000
  72.120	        31	    1200	     5.568
  72.140	        40	    1200	     6.325
  72.160	        33	    1200	     5.745
  72.180	        41	    1200	     6.403
  72.200	        37	    1200	     6.083
  72.220	        43	    1200	     6.557
  72.240	        55	    1200	     7.416
  72.260	        46	    1200	     6.782
  72.280	        58	    1200	     7.616
  72.300	        40	    1200	     6.325
  72.320	        34	    1200	     5.831
  72.340	        40	    1200	     6.325
  72.360	        39	    1200	     6.245
  72.380	        53	    1200	     7.280
  72.400	        32	    1200	     5.657
  72.420	        31	    1200	     5.568
  72.440	        44	    1200	     6.633
  72.460	        50	    1200	     7.071
  72.480	        42	    1200	     6.481
  72.500	        41	    1200	     6.403
  72.520	        35	    1200	     5.916
  72.540	        54	    1200	     7.348
  72.560	        45	    1200	     6.708
  72.580	        38	    1200	     6.164
  72.600	        57	    1200	     7.550
  72.620	        44	    1200	     6.633
  72.640	        39	    1200	     6.245
  72.660	        53	    1200	     7.280
  72.680	        49	    1200	     7.000
  72.700	        50	    1200	     7.071
  72.720	        52	    1200	     7.211
  72.740	        55	    1200	     7.416
  72.760	        48	    1200	     6.928
  72.780	        44	    1200	     6.633
  72.800	        35	    1200	     5.916
  72.820	        53	    1200	     7.280
  72.840	        40	    1200	     6.325
  72.860	        37	    1200	     6.083
  72.880	        54	    1200	     7.348
  72.900	        56	    1200	     7.483
  72.920	        47	    1200	     6.856
  72.940	        52	    1200	     7.211
  72.960	        49	    1200	     7.000
  72.980	        44	    1200	     6.633
  73.000	        43	    1200	     6.557
  73.020	        50	    1200	     7.071
  73.040	        50	    1200	     7.071
  73.060	        53	    1200	     7.280
  73.080	        48	    1200	     6.928
  73.100	        39	    1200	     6.245
  73.120	        50	    1200	     7.071
  73.140	        39	    1200	     6.245
  73.160	        41	    1200	     6.403
  73.180	        53	    1200	     7.280
  73.200	        43	    1200	     6.557
  73.220	        51	    1200	     7.141
  73.240	        41	    1200	     6.403
  73.260	        33	    1200	     5.745
  73.280	        36	    1200	     6.000
  73.300	        37	    1200	     6.083
  73.320	        22	    1200	     4.690
  73.340	        36	    1200	     6.000
  73.360	        31	    1200	     5.568
  73.380	        28	    1200	     5.292
  73.400	        24	    1200	     4.899
  73.420	        51	    1200	     7.141
  73.440	        42	    1200	     6.481
  73.460	        40	    1200	     6.325
  73.480	        46	    1200	     6.782
  73.500	        18	    1200	     4.243
  73.520	        41	    1200	     6.403
  73.540	        35	    1200	     5.916
  73.560	        43	    1200	     6.557
  73.580	        31	    1200	     5.568
  73.600	        40	    1200	     6.325
  73.620	        28	    1200	     5.292
  73.640	        40	    1200	     6.325
  73.660	        34	    1200	     5.831
  73.680	        39	    1200	     6.245
  73.700	        26	    1200	     5.099
  73.720	        37	    1200	     6.083
  73.740	        43	    1200	     6.557
  73.760	        26	    1200	     5.099
  73.780	        31	    1200	     5.568
  73.800	        31	    1200	     5.568
  73.820	        28	    1200	     5.292
  73.840	        33	    1200	     5.745
  73.860	        41	    1200	     6.403
  73.880	        30	    1200	     5.477
  73.900	        34	    1200	     5.831
  73.920	        35	    1200	     5.916
  73.940	        35	    1200	     5.916
  73.960	        37	    1200	     6.083
  73.980	        31	    1200	     5.568
  74.000	        31	    1200	     5.568
  74.020	        33	    1200	     5.745
  74.040	        34	    1200	     5.831
  74.060	        23	    1200	     4.796
  74.080	        42	    1200	     6.481
  74.100	        34	    1200	     5.831
  74.120	        39	    1200	     6.245
  74.140	        33	    1200	     5.745
  74.160	        33	    1200	     5.745
  74.180	        38	    1200	     6.164
  74.200	        36	    1200	     6.000
  74.220	        34	    1200	     5.831
  74.240	        42	    1200	     6.481
  74.260	        38	    1200	     6.164
  74.280	        34	    1200	     5.831
  74.300	        35	    1200	     5.916
  74.320	        35	    1200	     5.916
  74.340	        33	    1200	     5.745
  74.360	        40	    1200	     6.325
  74.380	        25	    1200	     5.000
  74.400	        31	    1200	     5.568
  74.420	        32	    1200	     5.657
  74.440	        37	    1200	     6.083
  74.460	        28	    1200	     5.292
  74.480	        27	    1200	     5.196
  74.500	        32	    1200	     5.657
  74.520	        35	    1200	     5.916
  74.540	        44	    1200	     6.633
  74.560	        30	    1200	     5.477
  74.580	        30	    1200	     5.477
  74.600	        33	    1200	     5.745
  74.620	        38	    1200	     6.164
  74.640	        21	    1200	     4.583
  74.660	        31	    1200	     5.568
  74.680	        25	    1200	     5.000
  74.700	        28	    1200	     5.292
  74.720	        38	    1200	     6.164
  74.740	        37	    1200	     6.083
  74.760	        40	    1200	     6.325
  74.780	        44	    1200	     6.633
  74.800	        32	    1200	     5.657
  74.820	        35	    1200	     5.916
  74.840	        32	    1200	     5.657
  74.860	        37	    1200	     6.083
  74.880	        38	    1200	     6.164
  74.900	        38	    1200	     6.164
  74.920	        42	    1200	     6.481
  74.940	        32	    1200	     5.657
  74.960	        39	    1200	     6.245
  74.980	        27	    1200	     5.196
  75.000	        30	    1200	     5.477
  75.020	        45	    1200	     6.708
  75.040	        37	    1200	     6.083
  75.060	        37	    1200	     6.083
  75.080	        26	    1200	     5.099
  75.100	        49	    1200	     7.000
  75.120	        36	    1200	     6.000
  75.140	        43	    1200	     6.557
  75.160	        41	    1200	     6.403
  75.180	        28	    1200	     5.292
  75.200	        27	    1200	     5.196
  75.220	        42	    1200	     6.481
  75.240	        41	    1200	     6.403
  75.260	        44	    1200	     6.633
  75.280	        24	    1200	     4.899
  75.300	        38	    1200	     6.164
  75.320	        42	    1200	     6.481
  75.340	        35	    1200	     5.916
  75.360	        23	    1200	     4.796
  75.380	        41	    1200	     6.403
  75.400	        45	    1200	     6.708
  75.420	        32	    1200	     5.657
  75.440	        42	    1200	     6.481
  75.460	        36	    1200	     6.000
  75.480	        34	    1200	     5.831
  75.500	        35	    1200	     5.916
  75.520	        36	    1200	     6.000
  75.540	        37	    1200	     6.083
  75.560	        43	    1200	     6.557
  75.580	        33	    1200	     5.745
  75.600	        36	    1200	     6.000
  75.620	        38	    1200	     6.164
  75.640	        37	    1200	     6.083
  75.660	        39	    1200	     6.245
  75.680	        30	    1200	     5.477
  75.700	        42	    1200	     6.481
  75.720	        24	    1200	     4.899
  75.740	        39	    1200	     6.245
  75.760	        39	    1200	     6.245
  75.780	        29	    1200	     5.385
  75.800	        30	    1200	     5.477
  75.820	        37	    1200	     6.083
  75.840	        38	    1200	     6.164
  75.860	        40	    1200	     6.325
  75.880	        42	    1200	     6.481
  75.900	        28	    1200	     5.292
  75.920	        31	    1200	     5.568
  75.940	        37	    1200	     6.083
  75.960	        45	    1200	     6.708
  75.980	        38	    1200	     6.164
  76.000	        46	    1200	     6.782
  76.020	        30	    1200	     5.477
  76.040	        36	    1200	     6.000
  76.060	        46	    1200	     6.782
  76.080	        31	    1200	     5.568
  76.100	        32	    1200	     5.657
  76.120	        35	    1200	     5.916
  76.140	        34	    1200	     5.831
  76.160	        35	    1200	     5.916
  76.180	        30	    1200	     5.477
  76.200	        43	    1200	     6.557
  76.220	        35	    1200	     5.916
  76.240	        35	    1200	     5.916
  76.260	        43	    1200	     6.557
  76.280	        28	    1200	     5.292
  76.300	        48	    1200	     6.928
  76.320	        46	    1200	     6.782
  76.340	        30	    1200	     5.477
  76.360	        54	    1200	     7.348
  76.380	        29	    1200	     5.385
  76.400	        61	    1200	     7.810
  76.420	        34	    1200	     5.831
  76.440	        43	    1200	     6.557
  76.460	        43	    1200	     6.557
  76.480	        44	    1200	     6.633
  76.500	        47	    1200	     6.856
  76.520	        63	    1200	     7.937
  76.540	        64	    1200	     8.000
  76.560	        66	    1200	     8.124
  76.580	        53	    1200	     7.280
  76.600	        61	    1200	     7.810
  76.620	        57	    1200	     7.550
  76.640	        56	    1200	     7.483
  76.660	        52	    1200	     7.211
  76.680	        52	    1200	     7.211
  76.700	        62	    1200	     7.874
  76.720	        68	    1200	     8.246
  76.740	        61	    1200	     7.810
  76.760	        62	    1200	     7.874
  76.780	        87	    1200	     9.327
  76.800	        87	    1200	     9.327
  76.820	        82	    1200	     9.055
  76.840	        99	    1200	     9.950
  76.860	       106	    1200	    10.296
  76.880	       126	    1200	    11.225
  76.900	       111	    1200	    10.536
  76.920	       139	    1200	    11.790
  76.940	       144	    1200	    12.000
  76.960	       137	    1200	    11.705
  76.980	       141	    1200	    11.874
  77.000	       178	    1200	    13.342
  77.020	       144	    1200	    12.000
  77.040	       176	    1200	    13.266
  77.060	       175	    1200	    13.229
  77.080	       163	    1200	    12.767
  77.100	       182	    1200	    13.491
  77.120	       163	    1200	    12.767
  77.140	       189	    1200	    13.748
  77.160	       209	    1200	    14.457
  77.180	       186	    1200	    13.638
  77.200	       185	    1200	    13.601
  77.220	       164	    1200	    12.806
  77.240	       206	    1200	    14.353
  77.260	       198	    1200	    14.071
  77.280	       182	    1200	    13.491
  77.300	       200	    1200	    14.142
  77.320	       172	    1200	    13.115
  77.340	       201	    1200	    14.177
  77.360	       195	    1200	    13.964
  77.380	       215	    1200	    14.663
  77.400	       187	    1200	    13.675
  77.420	       192	    1200	    13.856
  77.440	       196	    1200	    14.000
  77.460	       207	    1200	    14.387
  77.480	       197	    1200	    14.036
  77.500	       204	    1200	    14.283
  77.520	       205	    1200	    14.318
  77.540	       200	    1200	    14.142
  77.560	       209	    1200	    14.457
  77.580	       222	    1200	    14.900
  77.600	       272	    1200	    16.492
  77.620	       212	    1200	    14.560
  77.640	       208	    1200	    14.422
  77.660	       226	    1200	    15.033
  77.680	       186	    1200	    13.638
  77.700	       179	    1200	    13.379
  77.720	       191	    1200	    13.820
  77.740	       217	    1200	    14.731
  77.760	       162	    1200	    12.728
  77.780	       179	    1200	    13.379
  77.800	       149	    1200	    12.207
  77.820	       172	    1200	    13.115
  77.840	       165	    1200	    12.845
  77.860	       157	    1200	    12.530
  77.880	       151	    1200	    12.288
  77.900	       148	    1200	    12.166
  77.920	       136	    1200	    11.662
  77.940	       125	    1200	    11.180
  77.960	       110	    1200	    10.488
  77.980	       122	    1200	    11.045
  78.000	        90	    1200	     9.487
  78.020	       125	    1200	    11.180
  78.040	       104	    1200	    10.198
  78.060	        70	    1200	     8.367
  78.080	        96	    1200	     9.798
  78.100	        90	    1200	     9.487
  78.120	        84	    1200	     9.165
  78.140	        77	    1200	     8.775
  78.160	        75	    1200	     8.660
  78.180	        73	    1200	     8.544
  78.200	        75	    1200	     8.660
  78.220	        78	    1200	     8.832
  78.240	        66	    1200	     8.124
  78.260	        59	    1200	     7.681
  78.280	        65	    1200	     8.062
  78.300	        66	    1200	     8.124
  78.320	        57	    1200	     7.550
  78.340	        60	    1200	     7.746
  78.360	        54	    1200	     7.348
  78.380	        48	    1200	     6.928
  78.400	        50	    1200	     7.071
  78.420	        54	    1200	     7.348
  78.440	        44	    1200	     6.633
  78.460	        44	    1200	     6.633
  78.480	        36	    1200	     6.000
  78.500	        53	    1200	     7.280
  78.520	        46	    1200	     6.782
  78.540	        38	    1200	     6.164
  78.560	        35	    1200	     5.916
  78.580	        45	    1200	     6.708
  78.600	        36	    1200	     6.000
  78.620	        35	    1200	     5.916
  78.640	        33	    1200	     5.745
  78.660	        40	    1200	     6.325
  78.680	        42	    1200	     6.481
  78.700	        52	    1200	     7.211
  78.720	        32	    1200	     5.657
  78.740	        41	    1200	     6.403
  78.760	        28	    1200	     5.292
  78.780	        32	    1200	     5.657
  78.800	        44	    1200	     6.633
  78.820	        44	    1200	     6.633
  78.840	        40	    1200	     6.325
  78.860	        41	    1200	     6.403
  78.880	        36	    1200	     6.000
  78.900	        49	    1200	     7.000
  78.920	        30	    1200	     5.477
  78.940	        48	    1200	     6.928
  78.960	        35	    1200	     5.916
  78.980	        42	    1200	     6.481
  79.000	        38	    1200	     6.164
  79.020	        35	    1200	     5.916
  79.040	        35	    1200	     5.916
  79.060	        25	    1200	     5.000
  79.080	        32	    1200	     5.657
  79.100	        35	    1200	     5.916
  79.120	        33	    1200	     5.745
  79.140	        40	    1200	     6.325
  79.160	        39	    1200	     6.245
  79.180	        34	    1200	     5.831
  79.200	        40	    1200	     6.325
  79.220	        40	    1200	     6.325
  79.240	        52	    1200	     7.211
  79.260	        37	    1200	     6.083
  79.280	        41	    1200	     6.403
  79.300	        33	    1200	     5.745
  79.320	        33	    1200	     5.745
  79.340	        23	    1200	     4.796
  79.360	        30	    1200	     5.477
  79.380	        38	    1200	     6.164
  79.400	        33	    1200	     5.745
  79.420	        35	    1200	     5.916
  79.440	        34	    1200	     5.831
  79.460	        34	    1200	     5.831
  79.480	        25	    1200	     5.000
  79.500	        30	    1200	     5.477
  79.520	        38	    1200	     6.164
  79.540	        25	    1200	     5.000
  79.560	        29	    1200	     5.385
  79.580	        44	    1200	     6.633
  79.600	        38	    1200	     6.164
  79.620	        37	    1200	     6.083
  79.640	        24	    1200	     4.899
  79.660	        28	    1200	     5.292
  79.680	        33	    1200	     5.745
  79.700	        34	    1200	     5.831
  79.720	        24	    1200	     4.899
  79.740	        34	    1200	     5.831
  79.760	        37	    1200	     6.083
  79.780	        30	    1200	     5.477
  79.800	        39	    1200	     6.245
  79.820	        33	    1200	     5.745
  79.840	        37	    1200	     6.083
  79.860	        35	    1200	     5.916
  79.880	        35	    1200	     5.916
  79.900	        35	    1200	     5.916
  79.920	        32	    1200	     5.657
  79.940	        35	    1200	     5.916
  79.960	        37	    1200	     6.083
  79.980	        25	    1200	     5.000
  80.000	        38	    1200	     6.164
  80.020	        36	    1200	     6.000
  80.040	        29	    1200	     5.385
  80.060	        37	    1200	     6.083
  80.080	        39	    1200	     6.245
  80.100	        35	    1200	     5.916
  80.120	        32	    1200	     5.657
  80.140	        31	    1200	     5.568
  80.160	        32	    1200	     5.657
  80.180	        36	    1200	     6.000
  80.200	        29	    1200	     5.385
  80.220	        38	    1200	     6.164
  80.240	        41	    1200	     6.403
  80.260	        27	    1200	     5.196
  80.280	        37	    1200	     6.083
  80.300	        35	    1200	     5.916
  80.320	        31	    1200	     5.568
  80.340	        34	    1200	     5.831
  80.360	        44	    1200	     6.633
  80.380	        31	    1200	     5.568
  80.400	        28	    1200	     5.292
  80.420	        29	    1200	     5.385
  80.440	        40	    1200	     6.325
  80.460	        38	    1200	     6.164
  80.480	        32	    1200	     5.657
  80.500	        37	    1200	     6.083
  80.520	        30	    1200	     5.477
  80.540	        23	    1200	     4.796
  80.560	        28	    1200	     5.292
  80.580	        38	    1200	     6.164
  80.600	        33	    1200	     5.745
  80.620	        42	    1200	     6.481
  80.640	        29	    1200	     5.385
  80.660	        33	    1200	     5.745
  80.680	        25	    1200	     5.000
  80.700	        38	    1200	     6.164
  80.720	        38	    1200	     6.164
  80.740	        29	    1200	     5.385
  80.760	        38	    1200	     6.164
  80.780	        27	    1200	     5.196
  80.800	        32	    1200	     5.657
  80.820	        31	    1200	     5.568
  80.840	        42	    1200	     6.481
  80.860	        33	    1200	     5.745
  80.880	        29	    1200	     5.385
  80.900	        42	    1200	     6.481
  80.920	        37	    1200	     6.083
  80.940	        37	    1200	     6.083
  80.960	        32	    1200	     5.657
  80.980	        31	    1200	     5.568
  81.000	        33	    1200	     5.745
  81.020	        33	    1200	     5.745
  81.040	        40	    1200	     6.325
  81.060	        39	    1200	     6.245
  81.080	        32	    1200	     5.657
  81.100	        35	    1200	     5.916
  81.120	        39	    1200	     6.245
  81.140	        37	    1200	     6.083
  81.160	        45	    1200	     6.708
  81.180	        41	    1200	     6.403
  81.200	        47	    1200	     6.856
  81.220	        46	    1200	     6.782
  81.240	        36	    1200	     6.000
  81.260	        41	    1200	     6.403
  81.280	        48	    1200	     6.928
  81.300	        69	    1200	     8.307
  81.320	        40	    1200	     6.325
  81.340	        45	    1200	     6.708
  81.360	        50	    1200	     7.071
  81.380	        57	    1200	     7.550
  81.400	        55	    1200	     7.416
  81.420	        65	    1200	     8.062
  81.440	        57	    1200	     7.550
  81.460	        66	    1200	     8.124
  81.480	        67	    1200	     8.185
  81.500	        75	    1200	     8.660
  81.520	        73	    1200	     8.544
  81.540	        65	    1200	     8.062
  81.560	        76	    1200	     8.718
  81.580	        90	    1200	     9.487
  81.600	        68	    1200	     8.246
  81.620	        83	    1200	     9.110
  81.640	        62	    1200	     7.874
  81.660	        58	    1200	     7.616
  81.680	        67	    1200	     8.185
  81.700	        63	    1200	     7.937
  81.720	        70	    1200	     8.367
  81.740	        79	    1200	     8.888
  81.760	        70	    1200	     8.367
  81.780	        74	    1200	     8.602
  81.800	        88	    1200	     9.381
  81.820	        79	    1200	     8.888
  81.840	        82	    1200	     9.055
  81.860	        60	    1200	     7.746
  81.880	        75	    1200	     8.660
  81.900	        65	    1200	     8.062
  81.920	        55	    1200	     7.416
  81.940	        73	    1200	     8.544
  81.960	        78	    1200	     8.832
  81.980	        82	    1200	     9.055
  82.000	        50	    1200	     7.071
  82.020	        57	    1200	     7.550
  82.040	        60	    1200	     7.746
  82.060	        63	    1200	     7.937
  82.080	        74	    1200	     8.602
  82.100	        68	    1200	     8.246
  82.120	        57	    1200	     7.550
  82.140	        77	    1200	     8.775
  82.160	        72	    1200	     8.485
  82.180	        65	    1200	     8.062
  82.200	        81	    1200	     9.000
  82.220	        70	    1200	     8.367
  82.240	        74	    1200	     8.602
  82.260	        57	    1200	     7.550
  82.280	        58	    1200	     7.616
  82.300	        78	    1200	     8.832
  82.320	        56	    1200	     7.483
  82.340	        62	    1200	     7.874
  82.360	        52	    1200	     7.211
  82.380	        54	    1200	     7.348
  82.400	        43	    1200	     6.557
  82.420	        63	    1200	     7.937
  82.440	        61	    1200	     7.810
  82.460	        58	    1200	     7.616
  82.480	        55	    1200	     7.416
  82.500	        46	    1200	     6.782
  82.520	        42	    1200	     6.481
  82.540	        39	    1200	     6.245
  82.560	        51	    1200	     7.141
  82.580	        39	    1200	     6.245
  82.600	        59	    1200	     7.681
  82.620	        56	    1200	     7.483
  82.640	        47	    1200	     6.856
  82.660	        41	    1200	     6.403
  82.680	        30	    1200	     5.477
  82.700	        42	    1200	     6.481
  82.720	        40	    1200	     6.325
  82.740	        36	    1200	     6.000
  82.760	        39	    1200	     6.245
  82.780	        34	    1200	     5.831
  82.800	        42	    1200	     6.481
  82.820	        34	    1200	     5.831
  82.840	        35	    1200	     5.916
  82.860	        43	    1200	     6.557
  82.880	        49	    1200	     7.000
  82.900	        42	    1200	     6.481
  82.920	        29	    1200	     5.385
  82.940	        34	    1200	     5.831
  82.960	        42	    1200	     6.481
  82.980	        37	    1200	     6.083
  83.000	        23	    1200	     4.796
  83.020	        34	    1200	     5.831
  83.040	        28	    1200	     5.292
  83.060	        28	    1200	     5.292
  83.080	        30	    1200	     5.477
  83.100	        30	    1200	     5.477
  83.120	        32	    1200	     5.657
  83.140	        38	    1200	     6.164
  83.160	        28	    1200	     5.292
  83.180	        27	    1200	     5.196
  83.200	        41	    1200	     6.403
  83.220	        34	    1200	     5.831
  83.240	        34	    1200	     5.831
  83.260	        30	    1200	     5.477
  83.280	        32	    1200	     5.657
  83.300	        37	    1200	     6.083
  83.320	        27	    1200	     5.196
  83.340	        38	    1200	     6.164
  83.360	        35	    1200	     5.916
  83.380	        34	    1200	     5.831
  83.400	        31	    1200	     5.568
  83.420	        40	    1200	     6.325
  83.440	        29	    1200	     5.385
  83.460	        37	    1200	     6.083
  83.480	        26	    1200	     5.099
  83.500	        42	    1200	     6.481
  83.520	        22	    1200	     4.690
  83.540	        40	    1200	     6.325
  83.560	        30	    1200	     5.477
  83.580	        25	    1200	     5.000
  83.600	        35	    1200	     5.916
  83.620	        40	    1200	     6.325
  83.640	        44	    1200	     6.633
  83.660	        35	    1200	     5.916
  83.680	        28	    1200	     5.292
  83.700	        39	    1200	     6.245
  83.720	        43	    1200	     6.557
  83.740	        37	    1200	     6.083
  83.760	        16	    1200	     4.000
  83.780	        38	    1200	     6.164
  83.800	        45	    1200	     6.708
  83.820	        28	    1200	     5.292
  83.840	        26	    1200	     5.099
  83.860	        26	    1200	     5.099
  83.880	        31	    1200	     5.568
  83.900	        40	    1200	     6.325
  83.920	        30	    1200	     5.477
  83.940	        30	    1200	     5.477
  83.960	        37	    1200	     6.083
  83.980	        32	    1200	     5.657
  84.000	        36	    1200	     6.000
  84.020	        36	    1200	     6.000
  84.040	        33	    1200	     5.745
  84.060	        34	    1200	     5.831
  84.080	        36	    1200	     6.000
  84.100	        34	    1200	     5.831
  84.120	        38	    1200	     6.164
  84.140	        44	    1200	     6.633
  84.160	        32	    1200	     5.657
  84.180	        26	    1200	     5.099
  84.200	        18	    1200	     4.243
  84.220	        18	    1200	     4.243
  84.240	        26	    1200	     5.099
  84.260	        26	    1200	     5.099
  84.280	        28	    1200	     5.292
  84.300	        34	    1200	     5.831
  84.320	        38	    1200	     6.164
  84.340	        28	    1200	     5.292
  84.360	        32	    1200	     5.657
  84.380	        43	    1200	     6.557
  84.400	        34	    1200	     5.831
  84.420	        35	    1200	     5.916
  84.440	        29	    1200	     5.385
  84.460	        20	    1200	     4.472
  84.480	        31	    1200	     5.568
  84.500	        25	    1200	     5.000
  84.520	        25	    1200	     5.000
  84.540	        32	    1200	     5.657
  84.560	        22	    1200	     4.690
  84.580	        40	    1200	     6.325
  84.600	        44	    1200	     6.633
  84.620	        33	    1200	     5.745
  84.640	        26	    1200	     5.099
  84.660	        31	    1200	     5.568
  84.680	        32	    1200	     5.657
  84.700	        35	    1200	     5.916
  84.720	        34	    1200	     5.831
  84.740	        36	    1200	     6.000
  84.760	        28	    1200	     5.292
  84.780	        29	    1200	     5.385
  84.800	        35	    1200	     5.916
  84.820	        39	    1200	     6.245
  84.840	        33	    1200	     5.745
  84.860	        32	    1200	     5.657
  84.880	        36	    1200	     6.000
  84.900	        23	    1200	     4.796
  84.920	        31	    1200	     5.568
  84.940	        35	    1200	     5.916
  84.960	        24	    1200	     4.899
  84.980	        28	    1200	     5.292
  85.000	        28	    1200	     5.292
  85.020	        36	    1200	     6.000
  85.040	        29	    1200	     5.385
  85.060	        30	    1200	     5.477
  85.080	        30	    1200	     5.477
  85.100	        25	    1200	     5.000
  85.120	        32	    1200	     5.657
  85.140	        29	    1200	     5.385
  85.160	        30	    1200	     5.477
  85.180	        36	    1200	     6.000
  85.200	        36	    1200	     6.000
  85.220	        32	    1200	     5.657
  85.240	        34	    1200	     5.831
  85.260	        30	    1200	     5.477
  85.280	        36	    1200	     6.000
  85.300	        44	    1200	     6.633
  85.320	        42	    1200	     6.481
  85.340	        36	    1200	     6.000
  85.360	        29	    1200	     5.385
  85.380	        30	    1200	     5.477
  85.400	        29	    1200	     5.385
  85.420	        40	    1200	     6.325
  85.440	        42	    1200	     6.481
  85.460	        37	    1200	     6.083
  85.480	        31	    1200	     5.568
  85.500	        41	    1200	     6.403
  85.520	        38	    1200	     6.164
  85.540	        32	    1200	     5.657
  85.560	        32	    1200	     5.657
  85.580	        33	    1200	     5.745
  85.600	        44	    1200	     6.633
  85.620	        36	    1200	     6.000
  85.640	        40	    1200	     6.325
  85.660	        40	    1200	     6.325
  85.680	        47	    1200	     6.856
  85.700	        35	    1200	     5.916
  85.720	        38	    1200	     6.164
  85.740	        39	    1200	     6.245
  85.760	        42	    1200	     6.481
  85.780	        52	    1200	     7.211
  85.800	        45	    1200	     6.708
  85.820	        35	    1200	     5.916
  85.840	        51	    1200	     7.141
  85.860	        44	    1200	     6.633
  85.880	        54	    1200	     7.348
  85.900	        67	    1200	     8.185
  85.920	        63	    1200	     7.937
  85.940	        75	    1200	     8.660
  85.960	        69	    1200	     8.307
  85.980	        83	    1200	     9.110
  86.000	        69	    1200	     8.307
  86.020	        73	    1200	     8.544
  86.040	        70	    1200	     8.367
  86.060	        89	    1200	     9.434
  86.080	        80	    1200	     8.944
  86.100	        88	    1200	     9.381
  86.120	        78	    1200	     8.832
  86.140	        79	    1200	     8.888
  86.160	        86	    1200	     9.274
  86.180	        76	    1200	     8.718
  86.200	        79	    1200	     8.888
  86.220	        65	    1200	     8.062
  86.240	        83	    1200	     9.110
  86.260	        76	    1200	     8.718
  86.280	        76	    1200	     8.718
  86.300	        87	    1200	     9.327
  86.320	        93	    1200	     9.644
  86.340	        89	    1200	     9.434
  86.360	        70	    1200	     8.367
  86.380	        85	    1200	     9.220
  86.400	        94	    1200	     9.695
  86.420	        76	    1200	     8.718
  86.440	        66	    1200	     8.124
  86.460	        92	    1200	     9.592
  86.480	        76	    1200	     8.718
  86.500	        61	    1200	     7.810
  86.520	        87	    1200	     9.327
  86.540	        93	    1200	     9.644
  86.560	       108	    1200	    10.392
  86.580	        84	    1200	     9.165
  86.600	       106	    1200	    10.296
  86.620	        70	    1200	     8.367
  86.640	        94	    1200	     9.695
  86.660	        79	    1200	     8.888
  86.680	        85	    1200	     9.220
  86.700	       100	    1200	    10.000
  86.720	       106	    1200	    10.296
  86.740	        92	    1200	     9.592
  86.760	       109	    1200	    10.440
  86.780	        74	    1200	     8.602
  86.800	        85	    1200	     9.220
  86.820	       100	    1200	    10.000
  86.840	        80	    1200	     8.944
  86.860	        91	    1200	     9.539
  86.880	        91	    1200	     9.539
  86.900	        90	    1200	     9.487
  86.920	        79	    1200	     8.888
  86.940	       106	    1200	    10.296
  86.960	        77	    1200	     8.775
  86.980	        95	    1200	     9.747
  87.000	        85	    1200	     9.220
  87.020	        69	    1200	     8.307
  87.040	        73	    1200	     8.544
  87.060	        61	    1200	     7.810
  87.080	        66	    1200	     8.124
  87.100	        71	    1200	     8.426
  87.120	        73	    1200	     8.544
  87.140	        63	    1200	     7.937
  87.160	        57	    1200	     7.550
  87.180	        59	    1200	     7.681
  87.200	        52	    1200	     7.211
  87.220	        50	    1200	     7.071
  87.240	        50	    1200	     7.071
  87.260	        44	    1200	     6.633
  87.280	        44	    1200	     6.633
  87.300	        45	    1200	     6.708
  87.320	        53	    1200	     7.280
  87.340	        39	    1200	     6.245
  87.360	        31	    1200	     5.568
  87.380	        45	    1200	     6.708
  87.400	        30	    1200	     5.477
  87.420	        32	    1200	     5.657
  87.440	        41	    1200	     6.403
  87.460	        34	    1200	     5.831
  87.480	        32	    1200	     5.657
  87.500	        29	    1200	     5.385
  87.520	        34	    1200	     5.831
  87.540	        35	    1200	     5.916
  87.560	        37	    1200	     6.083
  87.580	        29	    1200	     5.385
  87.600	        35	    1200	     5.916
  87.620	        25	    1200	     5.000
  87.640	        27	    1200	     5.196
  87.660	        33	    1200	     5.745
  87.680	        25	    1200	     5.000
  87.700	        33	    1200	     5.745
  87.720	        33	    1200	     5.745
  87.740	        25	    1200	     5.000
  87.760	        31	    1200	     5.568
  87.780	        36	    1200	     6.000
  87.800	        31	    1200	     5.568
  87.820	        26	    1200	     5.099
  87.840	        39	    1200	     6.245
  87.860	        28	    1200	     5.292
  87.880	        22	    1200	     4.690
  87.900	        32	    1200	     5.657
  87.920	        22	    1200	     4.690
  87.940	        25	    1200	     5.000
  87.960	        30	    1200	     5.477
  87.980	        41	    1200	     6.403
  88.000	        34	    1200	     5.831
  88.020	        32	    1200	     5.657
  88.040	        30	    1200	     5.477
  88.060	        26	    1200	     5.099
  88.080	        26	    1200	     5.099
  88.100	        25	    1200	     5.000
  88.120	        30	    1200	     5.477
  88.140	        34	    1200	     5.831
  88.160	        26	    1200	     5.099
  88.180	        21	    1200	     4.583
  88.200	        21	    1200	     4.583
  88.220	        27	    1200	     5.196
  88.240	        32	    1200	     5.657
  88.260	        32	    1200	     5.657
  88.280	        20	    1200	     4.472
  88.300	        27	    1200	     5.196
  88.320	        24	    1200	     4.899
  88.340	        32	    1200	     5.657
  88.360	        34	    1200	     5.831
  88.380	        37	    1200	     6.083
  88.400	        34	    1200	     5.831
  88.420	        28	    1200	     5.292
  88.440	        46	    1200	     6.782
  88.460	        27	    1200	     5.196
  88.480	        29	    1200	     5.385
  88.500	        36	    1200	     6.000
  88.520	        33	    1200	     5.745
  88.540	        36	    1200	     6.000
  88.560	        37	    1200	     6.083
  88.580	        26	    1200	     5.099
  88.600	        29	    1200	     5.385
  88.620	        30	    1200	     5.477
  88.640	        33	    1200	     5.745
  88.660	        30	    1200	     5.477
  88.680	        31	    1200	     5.568
  88.700	        27	    1200	     5.196
  88.720	        38	    1200	     6.164
  88.740	        29	    1200	     5.385
  88.760	        21	    1200	     4.583
  88.780	        31	    1200	     5.568
  88.800	        34	    1200	     5.831
  88.820	        33	    1200	     5.745
  88.840	        31	    1200	     5.568
  88.860	        25	    1200	     5.000
  88.880	        26	    1200	     5.099
  88.900	        36	    1200	     6.000
  88.920	        29	    1200	     5.385
  88.940	        25	    1200	     5.000
  88.960	        19	    1200	     4.359
  88.980	        29	    1200	     5.385
  89.000	        31	    1200	     5.568
  89.020	        27	    1200	     5.196
  89.040	        21	    1200	     4.583
  89.060	        28	    1200	     5.292
  89.080	        30	    1200	     5.477
  89.100	        32	    1200	     5.657
  89.120	        25	    1200	     5.000
  89.140	        31	    1200	     5.568
  89.160	        23	    1200	     4.796
  89.180	        29	    1200	     5.385
  89.200	        24	    1200	     4.899
  89.220	        26	    1200	     5.099
  89.240	        27	    1200	     5.196
  89.260	        31	    1200	     5.568
  89.280	        30	    1200	     5.477
  89.300	        28	    1200	     5.292
  89.320	        25	    1200	     5.000
  89.340	        28	    1200	     5.292
  89.360	        33	    1200	     5.745
  89.380	        32	    1200	     5.657
  89.400	        26	    1200	     5.099
  89.420	        32	    1200	     5.657
  89.440	        41	    1200	     6.403
  89.460	        23	    1200	     4.796
  89.480	        37	    1200	     6.083
  89.500	        25	    1200	     5.000
  89.520	        31	    1200	     5.568
  89.540	        38	    1200	     6.164
  89.560	        27	    1200	     5.196
  89.580	        22	    1200	     4.690
  89.600	        37	    1200	     6.083
  89.620	        39	    1200	     6.245
  89.640	        27	    1200	     5.196
  89.660	        24	    1200	     4.899
  89.680	        32	    1200	     5.657
  89.700	        29	    1200	     5.385
  89.720	        28	    1200	     5.292
  89.740	        25	    1200	     5.000
  89.760	        26	    1200	     5.099
  89.780	        32	    1200	     5.657
  89.800	        37	    1200	     6.083
  89.820	        29	    1200	     5.385
  89.840	        30	    1200	     5.477
  89.860	        32	    1200	     5.657
  89.880	        31	    1200	     5.568
  89.900	        30	    1200	     5.477
  89.920	        20	    1200	     4.472
  89.940	        27	    1200	     5.196
  89.960	        41	    1200	     6.403
  89.980	        27	    1200	     5.196
  90.000	        43	    1200	     6.557
