*FILE_COMMENT ""
*FILE_MD5 ""
*FILE_MEMO ""
*FILE_OPERATOR "Administrator"
*FILE_PACKAGE_NAME ""
*FILE_PART_ID "GeneralMeasurement(BB)"
*FILE_SAMPLE "STF5_50H2_50H2O_72Hr_Dilute"
*FILE_SYSTEM_NAME "SmartLab"
*FILE_TYPE "RAS_RAW"
*FILE_USERGROUP "Administrators"
*FILE_VERSION "1"
*HW_ATTACHMENT_ID "ATT0033"
*HW_ATTACHMENT_NAME "ASC6_Reflection"
*HW_ATTACHMENT_NAME_INTERNAL "ASC6_Reflection"
*HW_COUNTER_ID-0 "CUT0051"
*HW_COUNTER_ID-2 "CMC0020"
*HW_COUNTER_MONOCHRO_ID "CMC0020"
*HW_COUNTER_MONOCHRO_NAME "None"
*HW_COUNTER_MONOCHRO_NAME_INTERNAL "None"
*HW_COUNTER_NAME_INTERNAL "HyPix3000(H)"
*HW_COUNTER_NAME-0 "HyPix3000(H)"
*HW_COUNTER_NAME-1 "None"
*HW_COUNTER_NAME-2 "None"
*HW_COUNTER_PIXEL_SIZE "0.1"
*HW_COUNTER_SELECT_NAME "HyPix3000(H)"
*HW_EXTERNAL_CONTROLLER_NAME "None"
*HW_EXTERNAL_CONTROLLER_NAME_INTERNAL "None"
*HW_GONIOMETER_ID "GON0022"
*HW_GONIOMETER_NAME "StandardInplane"
*HW_GONIOMETER_NAME_INTERNAL "StandardInplaneEnc"
*HW_GONIOMETER_RADIUS-0 "90.0"
*HW_GONIOMETER_RADIUS-1 "114.0"
*HW_GONIOMETER_RADIUS-2 "190.0"
*HW_GONIOMETER_RADIUS-3 "300.0"
*HW_GONIOMETER_RADIUS-4 "187.0"
*HW_GONIOMETER_RADIUS-5 "300.0"
*HW_GONIOMETER_RADIUS-6 "113.0"
*HW_GONIOMETER_RADIUS-7 "331.0"
*HW_I_CBO_ID "CBO0021"
*HW_I_CBO_NAME "CBO"
*HW_I_CBO_NAME_INTERNAL "CBO"
*HW_I_MONOCHRO_ID "ISO0021"
*HW_I_MONOCHRO_NAME "IPS_adaptor"
*HW_I_MONOCHRO_NAME_INTERNAL "IPS_adaptor"
*HW_I_OPT_ID-1 "CBO0021"
*HW_I_OPT_ID-2 "ISL0021"
*HW_I_PRIMARY_NAME_INTERNAL "Standard"
*HW_I_SLIT_ID "ISL0021"
*HW_I_SLIT_NAME "Auto"
*HW_I_SLIT_NAME_INTERNAL "Auto"
*HW_R_ATTENUATER_AUTOMODE "0"
*HW_R_ATTENUATER_ID "ATN0020"
*HW_R_ATTENUATER_NAME "No_unit"
*HW_R_ATTENUATOR_NAME_INTERNAL "No_unit"
*HW_R_OPT_ID-0 "RSS0022"
*HW_R_OPT_ID-1 "RCR0022"
*HW_R_OPT_ID-2 "RSO0021"
*HW_R_OPT_ID-3 "RRS0022"
*HW_R_OPT_ID-4 "ATN0020"
*HW_R_ROD_ID "RCR0022"
*HW_R_ROD_NAME "ROD_adaptor"
*HW_R_ROD_NAME_INTERNAL "ROD_adaptor"
*HW_R_RPS_ID "RSO0021"
*HW_R_RPS_NAME "RPS_adaptor"
*HW_R_RPS_NAME_INTERNAL "RPS_adaptor"
*HW_R_RS_ID "RRS0022"
*HW_R_RS_NAME "Virtual"
*HW_R_RS_NAME_INTERNAL "Virtual"
*HW_R_SS_ID "RSS0022"
*HW_R_SS_NAME "Auto_Zr"
*HW_R_SS_NAME_INTERNAL "Auto_Zr"
*HW_ROBOT_NAME "No_unit"
*HW_ROBOT_NAME_INTERNAL "No_unit"
*HW_SAMPLE_CAMERA_NAME "SampleCamera_Inp"
*HW_SAMPLE_CAMERA_NAME_INTERNAL "SampleCamera_Inp"
*HW_SAMPLE_HOLDER_ID "SMP0023"
*HW_SAMPLE_HOLDER_NAME "Z"
*HW_SAMPLE_HOLDER_NAME_INTERNAL "Z"
*HW_SAMPLE_NAME "ReflectionForASC"
*HW_SAMPLE_NAME_INTERNAL "ReflectionForASC"
*HW_SAMPLE_PLATE_NAME "None"
*HW_SAMPLE_PLATE_NAME_INTERNAL "None"
*HW_SAMPLE_SPACER_NAME "None"
*HW_SAMPLE_SPACER_NAME_INTERNAL "None"
*HW_USERINFO_CATALOG_NO ""
*HW_USERINFO_INSTRUMENT_ID ""
*HW_USERINFO_INSTRUMENT_NAME ""
*HW_USERINFO_INSTRUMENT_NO ""
*HW_USERINFO_MODEL ""
*HW_USERINFO_ORDER_NO ""
*HW_USERINFO_SERIAL_NO ""
*HW_USERINFO_VERIFY_INSTRUMENT_ID "00-07-fe-01-04-5e"
*HW_VER_RCD_COUNTER_UNIT "1.0.1"
*HW_VER_RCD_CPU "3.2.2"
*HW_VER_RCD_FPGA "1.2.3"
*HW_VER_RCD_GONIO_UNIT "6.2.0"
*HW_VER_RCD_INCIDENT_UNIT "6.2.0"
*HW_VER_RCD_RECEIVING_UNIT "6.1.1"
*HW_VER_RCD_TYPE "RINC"
*HW_VER_XGC_CPU "3.2.2"
*HW_VER_XGC_CW "1.3.2"
*HW_VER_XGC_HV "1.3.2"
*HW_VER_XGC_RS1 "1.3.2"
*HW_VER_XGC_RS2 "N/A"
*HW_VER_XGC_RT "N/A"
*HW_VER_XGC_TYPE "RINC"
*HW_XG_CURRENT_UNIT "mA"
*HW_XG_FOCUS "0.4mm x 8mm"
*HW_XG_FOCUS_TYPE "Fine"
*HW_XG_TARGET_ATOMIC_NUMBER "29"
*HW_XG_TARGET_NAME "Cu"
*HW_XG_TYPE "Hermetic"
*HW_XG_VOLTAGE_UNIT "kV"
*HW_XG_WAVE_LENGTH_ALPHA1 "1.540593"
*HW_XG_WAVE_LENGTH_ALPHA2 "1.544414"
*HW_XG_WAVE_LENGTH_BETA "1.392246"
*HW_XG_WAVE_LENGTH_UNIT "Angstrom"
*MEAS_COND_AXIS_NAME_INTERNAL-0 "ThetaS"
*MEAS_COND_AXIS_NAME_INTERNAL-1 "ThetaD"
*MEAS_COND_AXIS_NAME_INTERNAL-10 "PrimaryGeometry"
*MEAS_COND_AXIS_NAME_INTERNAL-100 "CounterMonochromatorKind"
*MEAS_COND_AXIS_NAME_INTERNAL-11 "PrimaryMirrorType"
*MEAS_COND_AXIS_NAME_INTERNAL-12 "CBOType"
*MEAS_COND_AXIS_NAME_INTERNAL-13 "CBO-M"
*MEAS_COND_AXIS_NAME_INTERNAL-14 "CBO"
*MEAS_COND_AXIS_NAME_INTERNAL-15 "SelectionSlitType"
*MEAS_COND_AXIS_NAME_INTERNAL-16 "IncidentSollerSlit"
*MEAS_COND_AXIS_NAME_INTERNAL-17 "ISSType"
*MEAS_COND_AXIS_NAME_INTERNAL-18 "IncidentSlitBox"
*MEAS_COND_AXIS_NAME_INTERNAL-19 "IncidentSlitBox"
*MEAS_COND_AXIS_NAME_INTERNAL-2 "TwoTheta"
*MEAS_COND_AXIS_NAME_INTERNAL-20 "IncidentSlitBox"
*MEAS_COND_AXIS_NAME_INTERNAL-21 "Zs"
*MEAS_COND_AXIS_NAME_INTERNAL-22 "IncidentAxdSlit"
*MEAS_COND_AXIS_NAME_INTERNAL-23 "IncidentAxdSlit"
*MEAS_COND_AXIS_NAME_INTERNAL-24 "IncidentAxdSlit"
*MEAS_COND_AXIS_NAME_INTERNAL-25 "Z"
*MEAS_COND_AXIS_NAME_INTERNAL-26 "DirectBeamStop"
*MEAS_COND_AXIS_NAME_INTERNAL-27 "KnifeEdge"
*MEAS_COND_AXIS_NAME_INTERNAL-28 "Beta"
*MEAS_COND_AXIS_NAME_INTERNAL-29 "Changer"
*MEAS_COND_AXIS_NAME_INTERNAL-3 "Omega"
*MEAS_COND_AXIS_NAME_INTERNAL-30 "ReceivingSlitBox1"
*MEAS_COND_AXIS_NAME_INTERNAL-31 "ReceivingSlitBox1"
*MEAS_COND_AXIS_NAME_INTERNAL-32 "ReceivingSlitBox1"
*MEAS_COND_AXIS_NAME_INTERNAL-33 "Zr"
*MEAS_COND_AXIS_NAME_INTERNAL-34 "Filter"
*MEAS_COND_AXIS_NAME_INTERNAL-35 "PSA"
*MEAS_COND_AXIS_NAME_INTERNAL-36 "ReceivingSollerSlit"
*MEAS_COND_AXIS_NAME_INTERNAL-37 "ReceivingSlitBox2"
*MEAS_COND_AXIS_NAME_INTERNAL-38 "ReceivingSlitBox2"
*MEAS_COND_AXIS_NAME_INTERNAL-39 "ReceivingSlitBox2"
*MEAS_COND_AXIS_NAME_INTERNAL-4 "TwoThetaTheta"
*MEAS_COND_AXIS_NAME_INTERNAL-40 "ModuleSensorType"
*MEAS_COND_AXIS_NAME_INTERNAL-41 "GainMode"
*MEAS_COND_AXIS_NAME_INTERNAL-42 "PHA"
*MEAS_COND_AXIS_NAME_INTERNAL-43 "DetectorBeamStop"
*MEAS_COND_AXIS_NAME_INTERNAL-44 "DetectorFilter"
*MEAS_COND_AXIS_NAME_INTERNAL-45 "DedicatedHolder"
*MEAS_COND_AXIS_NAME_INTERNAL-46 "Target_TargetTime"
*MEAS_COND_AXIS_NAME_INTERNAL-47 "Target_XrayOnTime"
*MEAS_COND_AXIS_NAME_INTERNAL-48 "Target_HVGreaseUpTime"
*MEAS_COND_AXIS_NAME_INTERNAL-49 "Target_IG"
*MEAS_COND_AXIS_NAME_INTERNAL-5 "TwoThetaOmega"
*MEAS_COND_AXIS_NAME_INTERNAL-50 "Target_GP"
*MEAS_COND_AXIS_NAME_INTERNAL-51 "Target_FC"
*MEAS_COND_AXIS_NAME_INTERNAL-52 "HVPS_Bias"
*MEAS_COND_AXIS_NAME_INTERNAL-53 "HVPS_HVPSTime"
*MEAS_COND_AXIS_NAME_INTERNAL-54 "HVPS_Type1Time"
*MEAS_COND_AXIS_NAME_INTERNAL-55 "HVPS_Type2Time"
*MEAS_COND_AXIS_NAME_INTERNAL-56 "HVPS_Type3Time"
*MEAS_COND_AXIS_NAME_INTERNAL-57 "CW_IERTime"
*MEAS_COND_AXIS_NAME_INTERNAL-58 "CW_WaterHose"
*MEAS_COND_AXIS_NAME_INTERNAL-59 "CW_CoolingWater"
*MEAS_COND_AXIS_NAME_INTERNAL-6 "OmegaTwoTheta"
*MEAS_COND_AXIS_NAME_INTERNAL-60 "CW_ECTime"
*MEAS_COND_AXIS_NAME_INTERNAL-61 "CW_Flow1"
*MEAS_COND_AXIS_NAME_INTERNAL-62 "CW_Temperature1"
*MEAS_COND_AXIS_NAME_INTERNAL-63 "CW_Pressure1"
*MEAS_COND_AXIS_NAME_INTERNAL-64 "CW_PressureIn"
*MEAS_COND_AXIS_NAME_INTERNAL-65 "CW_PressureOut"
*MEAS_COND_AXIS_NAME_INTERNAL-66 "CW_Flow2"
*MEAS_COND_AXIS_NAME_INTERNAL-67 "CW_Temperature2"
*MEAS_COND_AXIS_NAME_INTERNAL-68 "CW_Pressure2"
*MEAS_COND_AXIS_NAME_INTERNAL-69 "RE_EnclosureTemp"
*MEAS_COND_AXIS_NAME_INTERNAL-7 "TwoThetaChi"
*MEAS_COND_AXIS_NAME_INTERNAL-70 "RE_EnclosureHummidity"
*MEAS_COND_AXIS_NAME_INTERNAL-71 "RE_CabinetTemp"
*MEAS_COND_AXIS_NAME_INTERNAL-72 "RE_RPTemp"
*MEAS_COND_AXIS_NAME_INTERNAL-73 "RE_ShutterAXrayOnTime"
*MEAS_COND_AXIS_NAME_INTERNAL-74 "RE_ShutterATimes"
*MEAS_COND_AXIS_NAME_INTERNAL-75 "RE_ShutterAOpenCloseTime"
*MEAS_COND_AXIS_NAME_INTERNAL-76 "RE_ShutterACloseOpenTime"
*MEAS_COND_AXIS_NAME_INTERNAL-77 "RE_ShutterBXrayOnTime"
*MEAS_COND_AXIS_NAME_INTERNAL-78 "RE_ShutterBTimes"
*MEAS_COND_AXIS_NAME_INTERNAL-79 "RE_ShutterBOpenCloseTime"
*MEAS_COND_AXIS_NAME_INTERNAL-8 "GonioDirectBeamStop"
*MEAS_COND_AXIS_NAME_INTERNAL-80 "RE_ShutterBCloseOpenTime"
*MEAS_COND_AXIS_NAME_INTERNAL-81 "RE_XrayWarningRamp"
*MEAS_COND_AXIS_NAME_INTERNAL-82 "RE_ShutterAInstallation"
*MEAS_COND_AXIS_NAME_INTERNAL-83 "RE_ShutterARamp"
*MEAS_COND_AXIS_NAME_INTERNAL-84 "RE_ShutterBInstallation"
*MEAS_COND_AXIS_NAME_INTERNAL-85 "RE_ShutterBRamp"
*MEAS_COND_AXIS_NAME_INTERNAL-86 "RE_ExtShutterCLS"
*MEAS_COND_AXIS_NAME_INTERNAL-87 "RE_ExtXrayOFF"
*MEAS_COND_AXIS_NAME_INTERNAL-88 "RE_ExtSafetyCircuit"
*MEAS_COND_AXIS_NAME_INTERNAL-89 "Version_CPU"
*MEAS_COND_AXIS_NAME_INTERNAL-9 "Ts"
*MEAS_COND_AXIS_NAME_INTERNAL-90 "Version_RS1"
*MEAS_COND_AXIS_NAME_INTERNAL-91 "Version_RS2"
*MEAS_COND_AXIS_NAME_INTERNAL-92 "Version_HV"
*MEAS_COND_AXIS_NAME_INTERNAL-93 "Version_CW"
*MEAS_COND_AXIS_NAME_INTERNAL-94 "Version_RT"
*MEAS_COND_AXIS_NAME_INTERNAL-95 "Axis_GoniometerGreaseUp"
*MEAS_COND_AXIS_NAME_INTERNAL-96 "Lens"
*MEAS_COND_AXIS_NAME_INTERNAL-97 "IncidentPrimary"
*MEAS_COND_AXIS_NAME_INTERNAL-98 "IncidentMonochromator"
*MEAS_COND_AXIS_NAME_INTERNAL-99 "ReceivingOptics"
*MEAS_COND_AXIS_NAME-0 "ThetaS"
*MEAS_COND_AXIS_NAME-1 "ThetaD"
*MEAS_COND_AXIS_NAME-10 "PrimaryGeometry"
*MEAS_COND_AXIS_NAME-100 "CounterMonochromatorKind"
*MEAS_COND_AXIS_NAME-11 "PrimaryMirrorType"
*MEAS_COND_AXIS_NAME-12 "CBOType"
*MEAS_COND_AXIS_NAME-13 "CBO-M"
*MEAS_COND_AXIS_NAME-14 "CBO"
*MEAS_COND_AXIS_NAME-15 "SelectionSlitType"
*MEAS_COND_AXIS_NAME-16 "IncidentSollerSlit"
*MEAS_COND_AXIS_NAME-17 "ISSType"
*MEAS_COND_AXIS_NAME-18 "IncidentSlitBox"
*MEAS_COND_AXIS_NAME-19 "IncidentSlitBox-_Axis"
*MEAS_COND_AXIS_NAME-2 "TwoTheta"
*MEAS_COND_AXIS_NAME-20 "SlitDS"
*MEAS_COND_AXIS_NAME-21 "Zs"
*MEAS_COND_AXIS_NAME-22 "IncidentAxdSlit"
*MEAS_COND_AXIS_NAME-23 "LLS"
*MEAS_COND_AXIS_NAME-24 "DHLSlit"
*MEAS_COND_AXIS_NAME-25 "Z"
*MEAS_COND_AXIS_NAME-26 "DirectBeamStop"
*MEAS_COND_AXIS_NAME-27 "KnifeEdge"
*MEAS_COND_AXIS_NAME-28 "Beta"
*MEAS_COND_AXIS_NAME-29 "Changer"
*MEAS_COND_AXIS_NAME-3 "Omega"
*MEAS_COND_AXIS_NAME-30 "ReceivingSlitBox1"
*MEAS_COND_AXIS_NAME-31 "ReceivingSlitBox1-_Axis"
*MEAS_COND_AXIS_NAME-32 "SlitSS"
*MEAS_COND_AXIS_NAME-33 "Zr"
*MEAS_COND_AXIS_NAME-34 "Filter"
*MEAS_COND_AXIS_NAME-35 "PSA"
*MEAS_COND_AXIS_NAME-36 "ReceivingSollerSlit"
*MEAS_COND_AXIS_NAME-37 "ReceivingSlitBox2"
*MEAS_COND_AXIS_NAME-38 "ReceivingSlitBox2-_Axis"
*MEAS_COND_AXIS_NAME-39 "SlitRS"
*MEAS_COND_AXIS_NAME-4 "TwoThetaTheta"
*MEAS_COND_AXIS_NAME-40 "ModuleSensorType"
*MEAS_COND_AXIS_NAME-41 "GainMode"
*MEAS_COND_AXIS_NAME-42 "PHA"
*MEAS_COND_AXIS_NAME-43 "DetectorBeamStop"
*MEAS_COND_AXIS_NAME-44 "DetectorFilter"
*MEAS_COND_AXIS_NAME-45 "DedicatedHolder"
*MEAS_COND_AXIS_NAME-46 "Target_TargetTime"
*MEAS_COND_AXIS_NAME-47 "Target_XrayOnTime"
*MEAS_COND_AXIS_NAME-48 "Target_HVGreaseUpTime"
*MEAS_COND_AXIS_NAME-49 "Target_IG"
*MEAS_COND_AXIS_NAME-5 "TwoThetaOmega"
*MEAS_COND_AXIS_NAME-50 "Target_GP"
*MEAS_COND_AXIS_NAME-51 "Target_FC"
*MEAS_COND_AXIS_NAME-52 "HVPS_Bias"
*MEAS_COND_AXIS_NAME-53 "HVPS_HVPSTime"
*MEAS_COND_AXIS_NAME-54 "HVPS_Type1Time"
*MEAS_COND_AXIS_NAME-55 "HVPS_Type2Time"
*MEAS_COND_AXIS_NAME-56 "HVPS_Type3Time"
*MEAS_COND_AXIS_NAME-57 "CW_IERTime"
*MEAS_COND_AXIS_NAME-58 "CW_WaterHose"
*MEAS_COND_AXIS_NAME-59 "CW_CoolingWater"
*MEAS_COND_AXIS_NAME-6 "OmegaTwoTheta"
*MEAS_COND_AXIS_NAME-60 "CW_ECTime"
*MEAS_COND_AXIS_NAME-61 "CW_Flow1"
*MEAS_COND_AXIS_NAME-62 "CW_Temperature1"
*MEAS_COND_AXIS_NAME-63 "CW_Pressure1"
*MEAS_COND_AXIS_NAME-64 "CW_PressureIn"
*MEAS_COND_AXIS_NAME-65 "CW_PressureOut"
*MEAS_COND_AXIS_NAME-66 "CW_Flow2"
*MEAS_COND_AXIS_NAME-67 "CW_Temperature2"
*MEAS_COND_AXIS_NAME-68 "CW_Pressure2"
*MEAS_COND_AXIS_NAME-69 "RE_EnclosureTemp"
*MEAS_COND_AXIS_NAME-7 "TwoThetaChi"
*MEAS_COND_AXIS_NAME-70 "RE_EnclosureHummidity"
*MEAS_COND_AXIS_NAME-71 "RE_CabinetTemp"
*MEAS_COND_AXIS_NAME-72 "RE_RPTemp"
*MEAS_COND_AXIS_NAME-73 "RE_ShutterAXrayOnTime"
*MEAS_COND_AXIS_NAME-74 "RE_ShutterATimes"
*MEAS_COND_AXIS_NAME-75 "RE_ShutterAOpenCloseTime"
*MEAS_COND_AXIS_NAME-76 "RE_ShutterACloseOpenTime"
*MEAS_COND_AXIS_NAME-77 "RE_ShutterBXrayOnTime"
*MEAS_COND_AXIS_NAME-78 "RE_ShutterBTimes"
*MEAS_COND_AXIS_NAME-79 "RE_ShutterBOpenCloseTime"
*MEAS_COND_AXIS_NAME-8 "GonioDirectBeamStop"
*MEAS_COND_AXIS_NAME-80 "RE_ShutterBCloseOpenTime"
*MEAS_COND_AXIS_NAME-81 "RE_XrayWarningRamp"
*MEAS_COND_AXIS_NAME-82 "RE_ShutterAInstallation"
*MEAS_COND_AXIS_NAME-83 "RE_ShutterARamp"
*MEAS_COND_AXIS_NAME-84 "RE_ShutterBInstallation"
*MEAS_COND_AXIS_NAME-85 "RE_ShutterBRamp"
*MEAS_COND_AXIS_NAME-86 "RE_ExtShutterCLS"
*MEAS_COND_AXIS_NAME-87 "RE_ExtXrayOFF"
*MEAS_COND_AXIS_NAME-88 "RE_ExtSafetyCircuit"
*MEAS_COND_AXIS_NAME-89 "Version_CPU"
*MEAS_COND_AXIS_NAME-9 "Ts"
*MEAS_COND_AXIS_NAME-90 "Version_RS1"
*MEAS_COND_AXIS_NAME-91 "Version_RS2"
*MEAS_COND_AXIS_NAME-92 "Version_HV"
*MEAS_COND_AXIS_NAME-93 "Version_CW"
*MEAS_COND_AXIS_NAME-94 "Version_RT"
*MEAS_COND_AXIS_NAME-95 "Axis_GoniometerGreaseUp"
*MEAS_COND_AXIS_NAME-96 "Lens"
*MEAS_COND_AXIS_NAME-97 "IncidentPrimary"
*MEAS_COND_AXIS_NAME-98 "IncidentMonochromator"
*MEAS_COND_AXIS_NAME-99 "ReceivingOptics"
*MEAS_COND_AXIS_OFFSET-0 "0.0612"
*MEAS_COND_AXIS_OFFSET-1 "0.318"
*MEAS_COND_AXIS_OFFSET-10 "0"
*MEAS_COND_AXIS_OFFSET-100 "0"
*MEAS_COND_AXIS_OFFSET-11 "0"
*MEAS_COND_AXIS_OFFSET-12 "0"
*MEAS_COND_AXIS_OFFSET-13 "0"
*MEAS_COND_AXIS_OFFSET-14 "0"
*MEAS_COND_AXIS_OFFSET-15 "0"
*MEAS_COND_AXIS_OFFSET-16 "0"
*MEAS_COND_AXIS_OFFSET-17 "0"
*MEAS_COND_AXIS_OFFSET-18 "0"
*MEAS_COND_AXIS_OFFSET-19 "0"
*MEAS_COND_AXIS_OFFSET-2 "0.3792"
*MEAS_COND_AXIS_OFFSET-20 "0"
*MEAS_COND_AXIS_OFFSET-21 "0"
*MEAS_COND_AXIS_OFFSET-22 "0"
*MEAS_COND_AXIS_OFFSET-23 "0"
*MEAS_COND_AXIS_OFFSET-24 "0"
*MEAS_COND_AXIS_OFFSET-25 "0"
*MEAS_COND_AXIS_OFFSET-26 "0"
*MEAS_COND_AXIS_OFFSET-27 "0"
*MEAS_COND_AXIS_OFFSET-28 "0"
*MEAS_COND_AXIS_OFFSET-29 "0"
*MEAS_COND_AXIS_OFFSET-3 "0.0612"
*MEAS_COND_AXIS_OFFSET-30 "0"
*MEAS_COND_AXIS_OFFSET-31 "0"
*MEAS_COND_AXIS_OFFSET-32 "0"
*MEAS_COND_AXIS_OFFSET-33 "0"
*MEAS_COND_AXIS_OFFSET-34 "0"
*MEAS_COND_AXIS_OFFSET-35 "0"
*MEAS_COND_AXIS_OFFSET-36 "0"
*MEAS_COND_AXIS_OFFSET-37 "0"
*MEAS_COND_AXIS_OFFSET-38 "0"
*MEAS_COND_AXIS_OFFSET-39 "0"
*MEAS_COND_AXIS_OFFSET-4 "0"
*MEAS_COND_AXIS_OFFSET-40 "0"
*MEAS_COND_AXIS_OFFSET-41 "0"
*MEAS_COND_AXIS_OFFSET-42 "0"
*MEAS_COND_AXIS_OFFSET-43 "0"
*MEAS_COND_AXIS_OFFSET-44 "0"
*MEAS_COND_AXIS_OFFSET-45 "0"
*MEAS_COND_AXIS_OFFSET-46 "0"
*MEAS_COND_AXIS_OFFSET-47 "0"
*MEAS_COND_AXIS_OFFSET-48 "0"
*MEAS_COND_AXIS_OFFSET-49 "0"
*MEAS_COND_AXIS_OFFSET-5 "0"
*MEAS_COND_AXIS_OFFSET-50 "0"
*MEAS_COND_AXIS_OFFSET-51 "0"
*MEAS_COND_AXIS_OFFSET-52 "0"
*MEAS_COND_AXIS_OFFSET-53 "0"
*MEAS_COND_AXIS_OFFSET-54 "0"
*MEAS_COND_AXIS_OFFSET-55 "0"
*MEAS_COND_AXIS_OFFSET-56 "0"
*MEAS_COND_AXIS_OFFSET-57 "0"
*MEAS_COND_AXIS_OFFSET-58 "0"
*MEAS_COND_AXIS_OFFSET-59 "0"
*MEAS_COND_AXIS_OFFSET-6 "0"
*MEAS_COND_AXIS_OFFSET-60 "0"
*MEAS_COND_AXIS_OFFSET-61 "0"
*MEAS_COND_AXIS_OFFSET-62 "0"
*MEAS_COND_AXIS_OFFSET-63 "0"
*MEAS_COND_AXIS_OFFSET-64 "0"
*MEAS_COND_AXIS_OFFSET-65 "0"
*MEAS_COND_AXIS_OFFSET-66 "0"
*MEAS_COND_AXIS_OFFSET-67 "0"
*MEAS_COND_AXIS_OFFSET-68 "0"
*MEAS_COND_AXIS_OFFSET-69 "0"
*MEAS_COND_AXIS_OFFSET-7 "0"
*MEAS_COND_AXIS_OFFSET-70 "0"
*MEAS_COND_AXIS_OFFSET-71 "0"
*MEAS_COND_AXIS_OFFSET-72 "0"
*MEAS_COND_AXIS_OFFSET-73 "0"
*MEAS_COND_AXIS_OFFSET-74 "0"
*MEAS_COND_AXIS_OFFSET-75 "0"
*MEAS_COND_AXIS_OFFSET-76 "0"
*MEAS_COND_AXIS_OFFSET-77 "0"
*MEAS_COND_AXIS_OFFSET-78 "0"
*MEAS_COND_AXIS_OFFSET-79 "0"
*MEAS_COND_AXIS_OFFSET-8 "0"
*MEAS_COND_AXIS_OFFSET-80 "0"
*MEAS_COND_AXIS_OFFSET-81 "0"
*MEAS_COND_AXIS_OFFSET-82 "0"
*MEAS_COND_AXIS_OFFSET-83 "0"
*MEAS_COND_AXIS_OFFSET-84 "0"
*MEAS_COND_AXIS_OFFSET-85 "0"
*MEAS_COND_AXIS_OFFSET-86 "0"
*MEAS_COND_AXIS_OFFSET-87 "0"
*MEAS_COND_AXIS_OFFSET-88 "0"
*MEAS_COND_AXIS_OFFSET-89 "0"
*MEAS_COND_AXIS_OFFSET-9 "0"
*MEAS_COND_AXIS_OFFSET-90 "0"
*MEAS_COND_AXIS_OFFSET-91 "0"
*MEAS_COND_AXIS_OFFSET-92 "0"
*MEAS_COND_AXIS_OFFSET-93 "0"
*MEAS_COND_AXIS_OFFSET-94 "0"
*MEAS_COND_AXIS_OFFSET-95 "0"
*MEAS_COND_AXIS_OFFSET-96 "0"
*MEAS_COND_AXIS_OFFSET-97 "0"
*MEAS_COND_AXIS_OFFSET-98 "0"
*MEAS_COND_AXIS_OFFSET-99 "0"
*MEAS_COND_AXIS_POSITION-0 "0.0000"
*MEAS_COND_AXIS_POSITION-1 "0.0000"
*MEAS_COND_AXIS_POSITION-10 "Right"
*MEAS_COND_AXIS_POSITION-100 "None"
*MEAS_COND_AXIS_POSITION-11 "None"
*MEAS_COND_AXIS_POSITION-12 "Type1"
*MEAS_COND_AXIS_POSITION-13 "0"
*MEAS_COND_AXIS_POSITION-14 "BB"
*MEAS_COND_AXIS_POSITION-15 "Type1"
*MEAS_COND_AXIS_POSITION-16 "Soller_slit_5.0deg"
*MEAS_COND_AXIS_POSITION-17 "Type1"
*MEAS_COND_AXIS_POSITION-18 "2/3deg"
*MEAS_COND_AXIS_POSITION-19 "2.210625"
*MEAS_COND_AXIS_POSITION-2 "0.0000"
*MEAS_COND_AXIS_POSITION-20 "2/3deg"
*MEAS_COND_AXIS_POSITION-21 "0.6000000"
*MEAS_COND_AXIS_POSITION-22 "10mm"
*MEAS_COND_AXIS_POSITION-23 "10mm"
*MEAS_COND_AXIS_POSITION-24 "10mm"
*MEAS_COND_AXIS_POSITION-25 "0.27080"
*MEAS_COND_AXIS_POSITION-26 "Out"
*MEAS_COND_AXIS_POSITION-27 "None"
*MEAS_COND_AXIS_POSITION-29 "1"
*MEAS_COND_AXIS_POSITION-3 "0.0000"
*MEAS_COND_AXIS_POSITION-30 "Open"
*MEAS_COND_AXIS_POSITION-31 "20.000000"
*MEAS_COND_AXIS_POSITION-32 "Open"
*MEAS_COND_AXIS_POSITION-33 "-0.6909375"
*MEAS_COND_AXIS_POSITION-34 "Cu_K-beta"
*MEAS_COND_AXIS_POSITION-35 "PSA_open"
*MEAS_COND_AXIS_POSITION-36 "Soller_slit_5.0deg"
*MEAS_COND_AXIS_POSITION-37 "20.100mm"
*MEAS_COND_AXIS_POSITION-38 "20.1"
*MEAS_COND_AXIS_POSITION-39 "20.100mm"
*MEAS_COND_AXIS_POSITION-4 "0.0000"
*MEAS_COND_AXIS_POSITION-40 "DC"
*MEAS_COND_AXIS_POSITION-41 "Mo-HiC"
*MEAS_COND_AXIS_POSITION-43 "None"
*MEAS_COND_AXIS_POSITION-44 "None"
*MEAS_COND_AXIS_POSITION-45 "None"
*MEAS_COND_AXIS_POSITION-5 "0.0000"
*MEAS_COND_AXIS_POSITION-6 "0.0000"
*MEAS_COND_AXIS_POSITION-7 "0.0000"
*MEAS_COND_AXIS_POSITION-8 "Out"
*MEAS_COND_AXIS_POSITION-9 "0.0000000"
*MEAS_COND_AXIS_POSITION-96 "1"
*MEAS_COND_AXIS_POSITION-97 "Standard"
*MEAS_COND_AXIS_POSITION-98 "IPS_adaptor"
*MEAS_COND_AXIS_POSITION-99 "PSA_open"
*MEAS_COND_AXIS_RESOLUTION-0 "0.0001"
*MEAS_COND_AXIS_RESOLUTION-1 "0.0001"
*MEAS_COND_AXIS_RESOLUTION-10 ""
*MEAS_COND_AXIS_RESOLUTION-11 ""
*MEAS_COND_AXIS_RESOLUTION-12 ""
*MEAS_COND_AXIS_RESOLUTION-13 "1"
*MEAS_COND_AXIS_RESOLUTION-14 ""
*MEAS_COND_AXIS_RESOLUTION-15 ""
*MEAS_COND_AXIS_RESOLUTION-16 ""
*MEAS_COND_AXIS_RESOLUTION-17 ""
*MEAS_COND_AXIS_RESOLUTION-18 "1/1600"
*MEAS_COND_AXIS_RESOLUTION-19 "1/1600"
*MEAS_COND_AXIS_RESOLUTION-2 "0.0001"
*MEAS_COND_AXIS_RESOLUTION-20 "1/1600"
*MEAS_COND_AXIS_RESOLUTION-21 "0.0003125"
*MEAS_COND_AXIS_RESOLUTION-22 ""
*MEAS_COND_AXIS_RESOLUTION-23 ""
*MEAS_COND_AXIS_RESOLUTION-24 ""
*MEAS_COND_AXIS_RESOLUTION-25 "0.00002"
*MEAS_COND_AXIS_RESOLUTION-26 ""
*MEAS_COND_AXIS_RESOLUTION-27 ""
*MEAS_COND_AXIS_RESOLUTION-28 "0.09"
*MEAS_COND_AXIS_RESOLUTION-29 "1"
*MEAS_COND_AXIS_RESOLUTION-3 "0.0001"
*MEAS_COND_AXIS_RESOLUTION-30 "1/1600"
*MEAS_COND_AXIS_RESOLUTION-31 "1/1600"
*MEAS_COND_AXIS_RESOLUTION-32 "1/1600"
*MEAS_COND_AXIS_RESOLUTION-33 "0.0003125"
*MEAS_COND_AXIS_RESOLUTION-34 ""
*MEAS_COND_AXIS_RESOLUTION-35 ""
*MEAS_COND_AXIS_RESOLUTION-36 ""
*MEAS_COND_AXIS_RESOLUTION-37 "0.1"
*MEAS_COND_AXIS_RESOLUTION-38 "0.1"
*MEAS_COND_AXIS_RESOLUTION-39 "0.1"
*MEAS_COND_AXIS_RESOLUTION-4 "0.0002"
*MEAS_COND_AXIS_RESOLUTION-40 ""
*MEAS_COND_AXIS_RESOLUTION-41 ""
*MEAS_COND_AXIS_RESOLUTION-42 "1"
*MEAS_COND_AXIS_RESOLUTION-43 ""
*MEAS_COND_AXIS_RESOLUTION-44 ""
*MEAS_COND_AXIS_RESOLUTION-45 ""
*MEAS_COND_AXIS_RESOLUTION-46 "0.01"
*MEAS_COND_AXIS_RESOLUTION-47 "0.010000"
*MEAS_COND_AXIS_RESOLUTION-48 "0.01"
*MEAS_COND_AXIS_RESOLUTION-49 "1"
*MEAS_COND_AXIS_RESOLUTION-5 "0.0002"
*MEAS_COND_AXIS_RESOLUTION-50 "1"
*MEAS_COND_AXIS_RESOLUTION-51 "0.01"
*MEAS_COND_AXIS_RESOLUTION-52 "1"
*MEAS_COND_AXIS_RESOLUTION-53 "0.01"
*MEAS_COND_AXIS_RESOLUTION-54 "0.01"
*MEAS_COND_AXIS_RESOLUTION-55 "0.01"
*MEAS_COND_AXIS_RESOLUTION-56 "0.01"
*MEAS_COND_AXIS_RESOLUTION-57 "0.010000"
*MEAS_COND_AXIS_RESOLUTION-58 "0.01"
*MEAS_COND_AXIS_RESOLUTION-59 "0.01"
*MEAS_COND_AXIS_RESOLUTION-6 "0.0001"
*MEAS_COND_AXIS_RESOLUTION-60 "1"
*MEAS_COND_AXIS_RESOLUTION-61 "0.100000"
*MEAS_COND_AXIS_RESOLUTION-62 "1.000000"
*MEAS_COND_AXIS_RESOLUTION-63 "0.010000"
*MEAS_COND_AXIS_RESOLUTION-64 "0.01"
*MEAS_COND_AXIS_RESOLUTION-65 "0.01"
*MEAS_COND_AXIS_RESOLUTION-66 "0.1"
*MEAS_COND_AXIS_RESOLUTION-67 "1"
*MEAS_COND_AXIS_RESOLUTION-68 "0.01"
*MEAS_COND_AXIS_RESOLUTION-69 "1.000000"
*MEAS_COND_AXIS_RESOLUTION-7 "0.0005"
*MEAS_COND_AXIS_RESOLUTION-70 "1"
*MEAS_COND_AXIS_RESOLUTION-71 "1.000000"
*MEAS_COND_AXIS_RESOLUTION-72 "1"
*MEAS_COND_AXIS_RESOLUTION-73 "0.01"
*MEAS_COND_AXIS_RESOLUTION-74 "1"
*MEAS_COND_AXIS_RESOLUTION-75 "1"
*MEAS_COND_AXIS_RESOLUTION-76 "1"
*MEAS_COND_AXIS_RESOLUTION-77 "0.01"
*MEAS_COND_AXIS_RESOLUTION-78 "1.000000"
*MEAS_COND_AXIS_RESOLUTION-79 "1.000000"
*MEAS_COND_AXIS_RESOLUTION-8 ""
*MEAS_COND_AXIS_RESOLUTION-80 "1.000000"
*MEAS_COND_AXIS_RESOLUTION-81 "-"
*MEAS_COND_AXIS_RESOLUTION-82 "-"
*MEAS_COND_AXIS_RESOLUTION-83 "-"
*MEAS_COND_AXIS_RESOLUTION-84 "1.000000"
*MEAS_COND_AXIS_RESOLUTION-85 "-"
*MEAS_COND_AXIS_RESOLUTION-86 "-"
*MEAS_COND_AXIS_RESOLUTION-87 "-"
*MEAS_COND_AXIS_RESOLUTION-88 "1.000000"
*MEAS_COND_AXIS_RESOLUTION-89 "1.000000"
*MEAS_COND_AXIS_RESOLUTION-9 "0.0000625"
*MEAS_COND_AXIS_RESOLUTION-90 "1.000000"
*MEAS_COND_AXIS_RESOLUTION-91 "1.000000"
*MEAS_COND_AXIS_RESOLUTION-92 "1.000000"
*MEAS_COND_AXIS_RESOLUTION-93 "1.000000"
*MEAS_COND_AXIS_RESOLUTION-94 "1.000000"
*MEAS_COND_AXIS_RESOLUTION-95 "0.01"
*MEAS_COND_AXIS_RESOLUTION-96 ""
*MEAS_COND_AXIS_SPEED_RESOLUTION-28 "0.1"
*MEAS_COND_AXIS_SPEED_UNIT-28 "rpm"
*MEAS_COND_AXIS_SPEED-28 "10"
*MEAS_COND_AXIS_STATE-0 "Fixed"
*MEAS_COND_AXIS_STATE-1 "Fixed"
*MEAS_COND_AXIS_STATE-10 "Fixed"
*MEAS_COND_AXIS_STATE-11 "Fixed"
*MEAS_COND_AXIS_STATE-12 "Fixed"
*MEAS_COND_AXIS_STATE-13 "Fixed"
*MEAS_COND_AXIS_STATE-14 "Fixed"
*MEAS_COND_AXIS_STATE-15 "Fixed"
*MEAS_COND_AXIS_STATE-16 "Fixed"
*MEAS_COND_AXIS_STATE-17 "Fixed"
*MEAS_COND_AXIS_STATE-18 "Fixed"
*MEAS_COND_AXIS_STATE-19 "Fixed"
*MEAS_COND_AXIS_STATE-2 "Fixed"
*MEAS_COND_AXIS_STATE-20 "Fixed"
*MEAS_COND_AXIS_STATE-21 "Fixed"
*MEAS_COND_AXIS_STATE-22 "Fixed"
*MEAS_COND_AXIS_STATE-23 "Fixed"
*MEAS_COND_AXIS_STATE-24 "Fixed"
*MEAS_COND_AXIS_STATE-25 "Fixed"
*MEAS_COND_AXIS_STATE-26 "Fixed"
*MEAS_COND_AXIS_STATE-27 "Fixed"
*MEAS_COND_AXIS_STATE-28 "Rotation"
*MEAS_COND_AXIS_STATE-29 "Fixed"
*MEAS_COND_AXIS_STATE-3 "Fixed"
*MEAS_COND_AXIS_STATE-30 "Fixed"
*MEAS_COND_AXIS_STATE-31 "Fixed"
*MEAS_COND_AXIS_STATE-32 "Fixed"
*MEAS_COND_AXIS_STATE-33 "Fixed"
*MEAS_COND_AXIS_STATE-34 "Fixed"
*MEAS_COND_AXIS_STATE-35 "Fixed"
*MEAS_COND_AXIS_STATE-36 "Fixed"
*MEAS_COND_AXIS_STATE-37 "Fixed"
*MEAS_COND_AXIS_STATE-38 "Fixed"
*MEAS_COND_AXIS_STATE-39 "Fixed"
*MEAS_COND_AXIS_STATE-4 "Scan"
*MEAS_COND_AXIS_STATE-40 "Fixed"
*MEAS_COND_AXIS_STATE-41 "Fixed"
*MEAS_COND_AXIS_STATE-42 "Fixed"
*MEAS_COND_AXIS_STATE-43 "Fixed"
*MEAS_COND_AXIS_STATE-44 "Fixed"
*MEAS_COND_AXIS_STATE-45 "Fixed"
*MEAS_COND_AXIS_STATE-46 "Fixed"
*MEAS_COND_AXIS_STATE-47 "Fixed"
*MEAS_COND_AXIS_STATE-48 "Fixed"
*MEAS_COND_AXIS_STATE-49 "Fixed"
*MEAS_COND_AXIS_STATE-5 "Fixed"
*MEAS_COND_AXIS_STATE-50 "Fixed"
*MEAS_COND_AXIS_STATE-51 "Fixed"
*MEAS_COND_AXIS_STATE-52 "Fixed"
*MEAS_COND_AXIS_STATE-53 "Fixed"
*MEAS_COND_AXIS_STATE-54 "Fixed"
*MEAS_COND_AXIS_STATE-55 "Fixed"
*MEAS_COND_AXIS_STATE-56 "Fixed"
*MEAS_COND_AXIS_STATE-57 "Fixed"
*MEAS_COND_AXIS_STATE-58 "Fixed"
*MEAS_COND_AXIS_STATE-59 "Fixed"
*MEAS_COND_AXIS_STATE-6 "Fixed"
*MEAS_COND_AXIS_STATE-60 "Fixed"
*MEAS_COND_AXIS_STATE-61 "Fixed"
*MEAS_COND_AXIS_STATE-62 "Fixed"
*MEAS_COND_AXIS_STATE-63 "Fixed"
*MEAS_COND_AXIS_STATE-64 "Fixed"
*MEAS_COND_AXIS_STATE-65 "Fixed"
*MEAS_COND_AXIS_STATE-66 "Fixed"
*MEAS_COND_AXIS_STATE-67 "Fixed"
*MEAS_COND_AXIS_STATE-68 "Fixed"
*MEAS_COND_AXIS_STATE-69 "Fixed"
*MEAS_COND_AXIS_STATE-7 "Fixed"
*MEAS_COND_AXIS_STATE-70 "Fixed"
*MEAS_COND_AXIS_STATE-71 "Fixed"
*MEAS_COND_AXIS_STATE-72 "Fixed"
*MEAS_COND_AXIS_STATE-73 "Fixed"
*MEAS_COND_AXIS_STATE-74 "Fixed"
*MEAS_COND_AXIS_STATE-75 "Fixed"
*MEAS_COND_AXIS_STATE-76 "Fixed"
*MEAS_COND_AXIS_STATE-77 "Fixed"
*MEAS_COND_AXIS_STATE-78 "Fixed"
*MEAS_COND_AXIS_STATE-79 "Fixed"
*MEAS_COND_AXIS_STATE-8 "Fixed"
*MEAS_COND_AXIS_STATE-80 "Fixed"
*MEAS_COND_AXIS_STATE-81 "Fixed"
*MEAS_COND_AXIS_STATE-82 "Fixed"
*MEAS_COND_AXIS_STATE-83 "Fixed"
*MEAS_COND_AXIS_STATE-84 "Fixed"
*MEAS_COND_AXIS_STATE-85 "Fixed"
*MEAS_COND_AXIS_STATE-86 "Fixed"
*MEAS_COND_AXIS_STATE-87 "Fixed"
*MEAS_COND_AXIS_STATE-88 "Fixed"
*MEAS_COND_AXIS_STATE-89 "Fixed"
*MEAS_COND_AXIS_STATE-9 "Fixed"
*MEAS_COND_AXIS_STATE-90 "Fixed"
*MEAS_COND_AXIS_STATE-91 "Fixed"
*MEAS_COND_AXIS_STATE-92 "Fixed"
*MEAS_COND_AXIS_STATE-93 "Fixed"
*MEAS_COND_AXIS_STATE-94 "Fixed"
*MEAS_COND_AXIS_STATE-95 "Fixed"
*MEAS_COND_AXIS_STATE-96 "Fixed"
*MEAS_COND_AXIS_UNIT-0 "deg"
*MEAS_COND_AXIS_UNIT-1 "deg"
*MEAS_COND_AXIS_UNIT-10 ""
*MEAS_COND_AXIS_UNIT-100 ""
*MEAS_COND_AXIS_UNIT-11 ""
*MEAS_COND_AXIS_UNIT-12 ""
*MEAS_COND_AXIS_UNIT-13 "pulse"
*MEAS_COND_AXIS_UNIT-14 ""
*MEAS_COND_AXIS_UNIT-15 ""
*MEAS_COND_AXIS_UNIT-16 ""
*MEAS_COND_AXIS_UNIT-17 ""
*MEAS_COND_AXIS_UNIT-18 ""
*MEAS_COND_AXIS_UNIT-19 "mm"
*MEAS_COND_AXIS_UNIT-2 "deg"
*MEAS_COND_AXIS_UNIT-20 ""
*MEAS_COND_AXIS_UNIT-21 "mm"
*MEAS_COND_AXIS_UNIT-22 ""
*MEAS_COND_AXIS_UNIT-23 ""
*MEAS_COND_AXIS_UNIT-24 ""
*MEAS_COND_AXIS_UNIT-25 "mm"
*MEAS_COND_AXIS_UNIT-26 ""
*MEAS_COND_AXIS_UNIT-27 ""
*MEAS_COND_AXIS_UNIT-28 "deg"
*MEAS_COND_AXIS_UNIT-29 ""
*MEAS_COND_AXIS_UNIT-3 "deg"
*MEAS_COND_AXIS_UNIT-30 ""
*MEAS_COND_AXIS_UNIT-31 "mm"
*MEAS_COND_AXIS_UNIT-32 ""
*MEAS_COND_AXIS_UNIT-33 "mm"
*MEAS_COND_AXIS_UNIT-34 ""
*MEAS_COND_AXIS_UNIT-35 ""
*MEAS_COND_AXIS_UNIT-36 ""
*MEAS_COND_AXIS_UNIT-37 ""
*MEAS_COND_AXIS_UNIT-38 "mm"
*MEAS_COND_AXIS_UNIT-39 ""
*MEAS_COND_AXIS_UNIT-4 "deg"
*MEAS_COND_AXIS_UNIT-40 ""
*MEAS_COND_AXIS_UNIT-41 ""
*MEAS_COND_AXIS_UNIT-42 "keV"
*MEAS_COND_AXIS_UNIT-43 ""
*MEAS_COND_AXIS_UNIT-44 ""
*MEAS_COND_AXIS_UNIT-45 ""
*MEAS_COND_AXIS_UNIT-46 "H"
*MEAS_COND_AXIS_UNIT-47 "H"
*MEAS_COND_AXIS_UNIT-48 "H"
*MEAS_COND_AXIS_UNIT-49 "mV"
*MEAS_COND_AXIS_UNIT-5 "deg"
*MEAS_COND_AXIS_UNIT-50 "V"
*MEAS_COND_AXIS_UNIT-51 "V"
*MEAS_COND_AXIS_UNIT-52 "V"
*MEAS_COND_AXIS_UNIT-53 "H"
*MEAS_COND_AXIS_UNIT-54 "H"
*MEAS_COND_AXIS_UNIT-55 "H"
*MEAS_COND_AXIS_UNIT-56 "H"
*MEAS_COND_AXIS_UNIT-57 "H"
*MEAS_COND_AXIS_UNIT-58 "H"
*MEAS_COND_AXIS_UNIT-59 "H"
*MEAS_COND_AXIS_UNIT-6 "deg"
*MEAS_COND_AXIS_UNIT-60 "uS/m"
*MEAS_COND_AXIS_UNIT-61 "L/min"
*MEAS_COND_AXIS_UNIT-62 "degree"
*MEAS_COND_AXIS_UNIT-63 "MPa"
*MEAS_COND_AXIS_UNIT-64 "MPa"
*MEAS_COND_AXIS_UNIT-65 "MPa"
*MEAS_COND_AXIS_UNIT-66 "L/min"
*MEAS_COND_AXIS_UNIT-67 "C"
*MEAS_COND_AXIS_UNIT-68 "MPa"
*MEAS_COND_AXIS_UNIT-69 "degree"
*MEAS_COND_AXIS_UNIT-7 "deg"
*MEAS_COND_AXIS_UNIT-70 "percent"
*MEAS_COND_AXIS_UNIT-71 "degree"
*MEAS_COND_AXIS_UNIT-72 "C"
*MEAS_COND_AXIS_UNIT-73 "H"
*MEAS_COND_AXIS_UNIT-74 "time"
*MEAS_COND_AXIS_UNIT-75 "msec"
*MEAS_COND_AXIS_UNIT-76 "msec"
*MEAS_COND_AXIS_UNIT-77 "H"
*MEAS_COND_AXIS_UNIT-78 "times"
*MEAS_COND_AXIS_UNIT-79 "msec"
*MEAS_COND_AXIS_UNIT-8 ""
*MEAS_COND_AXIS_UNIT-80 "msec"
*MEAS_COND_AXIS_UNIT-81 "-"
*MEAS_COND_AXIS_UNIT-82 "-"
*MEAS_COND_AXIS_UNIT-83 "-"
*MEAS_COND_AXIS_UNIT-84 ""
*MEAS_COND_AXIS_UNIT-85 "-"
*MEAS_COND_AXIS_UNIT-86 "-"
*MEAS_COND_AXIS_UNIT-87 "-"
*MEAS_COND_AXIS_UNIT-88 ""
*MEAS_COND_AXIS_UNIT-89 ""
*MEAS_COND_AXIS_UNIT-9 "mm"
*MEAS_COND_AXIS_UNIT-90 ""
*MEAS_COND_AXIS_UNIT-91 ""
*MEAS_COND_AXIS_UNIT-92 ""
*MEAS_COND_AXIS_UNIT-93 ""
*MEAS_COND_AXIS_UNIT-94 ""
*MEAS_COND_AXIS_UNIT-95 "H"
*MEAS_COND_AXIS_UNIT-96 ""
*MEAS_COND_AXIS_UNIT-97 ""
*MEAS_COND_AXIS_UNIT-98 ""
*MEAS_COND_AXIS_UNIT-99 ""
*MEAS_COND_COUNTER_CENTER_X "382.5"
*MEAS_COND_COUNTER_CENTER_Y "197.5"
*MEAS_COND_COUNTER_COUNTMODE "Differential"
*MEAS_COND_COUNTER_DEADTIMECORRECTION "Enabled"
*MEAS_COND_COUNTER_DISTANCE "300"
*MEAS_COND_COUNTER_ENERGYMODE "XRFReduction"
*MEAS_COND_COUNTER_INTEGRALMODE "Line"
*MEAS_COND_COUNTER_PHA_UNIT "keV"
*MEAS_COND_COUNTER_PHABASE "7.0"
*MEAS_COND_COUNTER_PHAWINDOW "5.0"
*MEAS_COND_COUNTER_PITCH_X "0.1"
*MEAS_COND_COUNTER_PITCH_Y "0.1"
*MEAS_COND_COUNTER_PITCHUNIT "mm"
*MEAS_COND_COUNTER_VALIDWIDTH_X "200"
*MEAS_COND_COUNTER_VALIDWIDTH_Y "201"
*MEAS_COND_OPT_ATTR "BB"
*MEAS_COND_OPT_NAME "User defined settings"
*MEAS_COND_XG_CURRENT "35"
*MEAS_COND_XG_VOLTAGE "40"
*MEAS_COND_XG_WAVE_TYPE "Ka"
*MEAS_DATA_COUNT "7501"
*MEAS_SCAN_AXIS_X "TwoThetaTheta"
*MEAS_SCAN_AXIS_X_INTERNAL "TwoThetaTheta"
*MEAS_SCAN_END_TIME "07/14/2023 12:02:58"
*MEAS_SCAN_MODE "CONTINUOUS"
*MEAS_SCAN_MODE_INTERNAL "TDI_1D"
*MEAS_SCAN_RESOLUTION_X "0.0002"
*MEAS_SCAN_SPEED "4.0000"
*MEAS_SCAN_SPEED_UNIT "deg/min"
*MEAS_SCAN_START "15.0000"
*MEAS_SCAN_START_TIME "07/14/2023 11:42:57"
*MEAS_SCAN_STEP "0.0100"
*MEAS_SCAN_STOP "90.0000"
*MEAS_SCAN_UNEQUALY_SPACED "False"
*MEAS_SCAN_UNIT_X "deg"
*MEAS_SCAN_UNIT_Y "cps"
#Intensity_unit=cps
#Attenuator_coefficient=1.0000
15.0000 17608.5042
15.0100 17529.3132
15.0200 17617.4138
15.0300 17195.9716
15.0400 17226.1116
15.0500 17504.1748
15.0600 17205.0228
15.0700 17411.4388
15.0800 16902.4788
15.0900 17225.0374
15.1000 17578.4602
15.1100 17456.3624
15.1200 17469.7070
15.1300 17269.6078
15.1400 17120.0976
15.1500 16964.2350
15.1600 16659.9854
15.1700 17197.8336
15.1800 17654.3262
15.1900 17533.9340
15.2000 17167.4708
15.2100 17051.0678
15.2200 17092.1044
15.2300 16948.2682
15.2400 16813.0518
15.2500 17086.0466
15.2600 17596.0302
15.2700 17481.9368
15.2800 17048.7842
15.2900 17042.7572
15.3000 16498.9794
15.3100 17085.9016
15.3200 17028.3448
15.3300 17541.7464
15.3400 16844.6370
15.3500 17433.7240
15.3600 16868.3186
15.3700 16555.1872
15.3800 17090.8186
15.3900 16138.0778
15.4000 16862.4316
15.4100 17019.6598
15.4200 16761.2110
15.4300 16649.6256
15.4400 17127.2510
15.4500 17065.7242
15.4600 16704.7786
15.4700 16518.1788
15.4800 16770.3988
15.4900 16270.0652
15.5000 16372.4252
15.5100 16280.0114
15.5200 16476.4486
15.5300 16849.3458
15.5400 16772.2526
15.5500 17077.9900
15.5600 16771.2272
15.5700 16473.6752
15.5800 16331.1018
15.5900 16413.3464
15.6000 16744.2740
15.6100 16828.8916
15.6200 16660.8398
15.6300 16270.8676
15.6400 16917.7018
15.6500 16075.2994
15.6600 16202.2330
15.6700 16488.6736
15.6800 16957.8874
15.6900 16633.5824
15.7000 16605.9148
15.7100 16593.1526
15.7200 16959.9480
15.7300 17165.2198
15.7400 16315.8642
15.7500 16393.5450
15.7600 16285.1318
15.7700 16377.2820
15.7800 16414.9984
15.7900 16323.9794
15.8000 16868.5416
15.8100 16555.1954
15.8200 16589.9008
15.8300 16662.8548
15.8400 17073.4310
15.8500 15650.4102
15.8600 16760.4200
15.8700 16160.4688
15.8800 16505.2702
15.8900 16387.4024
15.9000 16706.8702
15.9100 16722.3422
15.9200 15996.1800
15.9300 16122.3404
15.9400 16372.0118
15.9500 15800.5712
15.9600 16144.6534
15.9700 16130.4492
15.9800 16067.5504
15.9900 16282.2982
16.0000 15854.5346
16.0100 16780.7064
16.0200 15932.7312
16.0300 16623.4472
16.0400 15616.8702
16.0500 15841.6064
16.0600 16589.0120
16.0700 16966.8880
16.0800 16371.1182
16.0900 15909.3994
16.1000 16006.7514
16.1100 16139.8926
16.1200 15932.9916
16.1300 16166.9792
16.1400 16220.4948
16.1500 16408.9372
16.1600 15849.2400
16.1700 16207.9476
16.1800 15946.6098
16.1900 16267.1972
16.2000 15785.1530
16.2100 16022.5570
16.2200 15723.7924
16.2300 16017.4788
16.2400 16364.1308
16.2500 16422.0426
16.2600 16054.1650
16.2700 16130.4264
16.2800 16132.6840
16.2900 16066.3134
16.3000 15403.9600
16.3100 16016.7936
16.3200 16237.4430
16.3300 15773.5564
16.3400 15325.6674
16.3500 15946.7562
16.3600 16125.8496
16.3700 15581.3802
16.3800 15607.3650
16.3900 16012.6498
16.4000 15596.8684
16.4100 15458.3236
16.4200 15736.0286
16.4300 15935.8822
16.4400 15479.8844
16.4500 15654.1944
16.4600 15436.8522
16.4700 15945.2376
16.4800 15976.4046
16.4900 16032.3536
16.5000 15652.5374
16.5100 15249.3408
16.5200 15445.3044
16.5300 15380.4102
16.5400 15204.9690
16.5500 15457.0590
16.5600 15725.1970
16.5700 15418.1884
16.5800 16002.1728
16.5900 16050.6494
16.6000 14890.0748
16.6100 15873.9600
16.6200 15226.5576
16.6300 15282.3942
16.6400 15251.5300
16.6500 16335.2100
16.6600 15943.1088
16.6700 15258.4148
16.6800 15287.1420
16.6900 15843.8754
16.7000 15335.3158
16.7100 15060.1530
16.7200 15303.1608
16.7300 15493.9502
16.7400 16092.8304
16.7500 15764.5572
16.7600 15388.1690
16.7700 15186.6846
16.7800 16014.6142
16.7900 15993.8900
16.8000 15376.4828
16.8100 16202.1940
16.8200 15682.9004
16.8300 15875.6120
16.8400 15432.3454
16.8500 15367.7490
16.8600 15508.1184
16.8700 15651.4290
16.8800 15342.6010
16.8900 15215.3238
16.9000 15108.8868
16.9100 15255.2556
16.9200 15528.9926
16.9300 15233.4652
16.9400 15349.2986
16.9500 15358.1430
16.9600 15437.7180
16.9700 15251.7774
16.9800 15477.2478
16.9900 14922.8500
17.0000 14966.5836
17.0100 15071.0222
17.0200 15090.2392
17.0300 15075.0912
17.0400 14746.8538
17.0500 15242.5390
17.0600 15077.1354
17.0700 14855.0456
17.0800 15437.7750
17.0900 16040.9114
17.1000 15274.8974
17.1100 15234.1650
17.1200 15175.3710
17.1300 14502.2884
17.1400 15258.4326
17.1500 15152.0996
17.1600 14818.1982
17.1700 14401.0482
17.1800 14770.3304
17.1900 14682.9280
17.2000 15260.3222
17.2100 15521.7920
17.2200 15505.2278
17.2300 14792.8450
17.2400 15584.6842
17.2500 14849.6338
17.2600 14974.6290
17.2700 14902.4788
17.2800 14712.1192
17.2900 14862.9330
17.3000 14837.2868
17.3100 14855.5372
17.3200 14528.4928
17.3300 14373.5092
17.3400 14528.4944
17.3500 14639.7120
17.3600 14847.4594
17.3700 14956.2158
17.3800 15081.3118
17.3900 14573.6182
17.4000 14462.3178
17.4100 14730.7470
17.4200 14928.3790
17.4300 14669.9690
17.4400 15167.9460
17.4500 14538.2112
17.4600 14896.2956
17.4700 14741.4616
17.4800 14496.5332
17.4900 14328.2650
17.5000 14928.8850
17.5100 14987.2120
17.5200 15057.4870
17.5300 14917.6514
17.5400 14545.8204
17.5500 14558.4620
17.5600 14522.0670
17.5700 14299.0690
17.5800 14452.5700
17.5900 14884.5850
17.6000 14538.1852
17.6100 14771.8098
17.6200 15011.0108
17.6300 14743.2242
17.6400 14739.8844
17.6500 14485.1302
17.6600 14473.8770
17.6700 14059.3344
17.6800 14614.0690
17.6900 15282.0052
17.7000 14737.9900
17.7100 14906.5820
17.7200 15085.6446
17.7300 14941.1980
17.7400 14883.4944
17.7500 14359.5996
17.7600 14048.6344
17.7700 14495.9554
17.7800 14613.0696
17.7900 14167.6970
17.8000 14579.4092
17.8100 14212.2900
17.8200 15288.6702
17.8300 15035.0276
17.8400 14401.0742
17.8500 14984.4874
17.8600 14543.4456
17.8700 14405.6266
17.8800 13851.2240
17.8900 14315.3272
17.9000 14288.1788
17.9100 14080.5876
17.9200 14433.5872
17.9300 14516.3314
17.9400 14341.4892
17.9500 13943.9454
17.9600 14330.1692
17.9700 14596.9710
17.9800 14555.2246
17.9900 14411.9840
18.0000 14359.8518
18.0100 14295.7324
18.0200 14261.9580
18.0300 14046.8278
18.0400 14117.1436
18.0500 14149.8828
18.0600 13405.1278
18.0700 14284.8308
18.0800 14498.4814
18.0900 14524.1422
18.1000 13894.2432
18.1100 14006.3688
18.1200 13769.6240
18.1300 14064.5572
18.1400 14393.7646
18.1500 14207.7442
18.1600 13902.1484
18.1700 14098.8460
18.1800 13667.0964
18.1900 14404.1814
18.2000 14144.7234
18.2100 14525.2262
18.2200 14630.2880
18.2300 13910.7210
18.2400 13638.3780
18.2500 14253.2504
18.2600 13702.1728
18.2700 14312.0850
18.2800 13918.6670
18.2900 13705.2148
18.3000 14146.3786
18.3100 13894.3116
18.3200 14336.8294
18.3300 14366.3346
18.3400 14152.2152
18.3500 13881.2760
18.3600 13207.5398
18.3700 13573.1730
18.3800 14099.1098
18.3900 13811.4226
18.4000 14158.4896
18.4100 14754.1682
18.4200 13764.2318
18.4300 14052.8694
18.4400 14226.0954
18.4500 13376.6748
18.4600 13560.3670
18.4700 14082.1176
18.4800 14014.7672
18.4900 13837.1630
18.5000 13635.7714
18.5100 13912.1158
18.5200 13405.2678
18.5300 13950.0504
18.5400 14200.2670
18.5500 13890.0634
18.5600 13902.9020
18.5700 13398.2170
18.5800 13327.4032
18.5900 13567.7352
18.6000 13641.7782
18.6100 13586.8994
18.6200 13811.5266
18.6300 13846.1996
18.6400 13903.2454
18.6500 13724.4010
18.6600 13665.6316
18.6700 13586.3460
18.6800 13703.3756
18.6900 13580.1928
18.7000 13358.9112
18.7100 14221.1182
18.7200 13869.7136
18.7300 13728.1396
18.7400 13529.1626
18.7500 13568.0608
18.7600 13935.9082
18.7700 13522.4642
18.7800 13574.0820
18.7900 13708.2486
18.8000 13889.1422
18.8100 13605.5958
18.8200 13130.6316
18.8300 13721.8766
18.8400 12837.5814
18.8500 13572.7938
18.8600 13567.7482
18.8700 13514.4010
18.8800 12794.8112
18.8900 13265.3744
18.9000 13237.9004
18.9100 13601.4558
18.9200 13342.5252
18.9300 13473.0014
18.9400 13434.7738
18.9500 13440.2076
18.9600 13158.7882
18.9700 13203.7320
18.9800 13536.3216
18.9900 13691.4974
19.0000 13036.8726
19.0100 13471.3354
19.0200 13292.0548
19.0300 13263.2600
19.0400 13240.7732
19.0500 13209.9976
19.0600 13402.0304
19.0700 13148.7630
19.0800 13560.0520
19.0900 13250.0878
19.1000 13133.0004
19.1100 13323.0542
19.1200 13527.8434
19.1300 13026.6228
19.1400 12629.8446
19.1500 13219.9576
19.1600 13070.0854
19.1700 13113.9770
19.1800 13177.1476
19.1900 13237.2298
19.2000 13601.0302
19.2100 13301.7236
19.2200 13236.3606
19.2300 13390.0292
19.2400 13312.0362
19.2500 13106.5218
19.2600 13665.6656
19.2700 13280.4516
19.2800 12808.7208
19.2900 12973.8794
19.3000 13516.5340
19.3100 13672.6774
19.3200 12897.9630
19.3300 13312.8996
19.3400 13424.8682
19.3500 12682.6840
19.3600 12789.2626
19.3700 13261.9898
19.3800 13549.4166
19.3900 13270.7804
19.4000 13299.0796
19.4100 12938.8850
19.4200 12747.1648
19.4300 12733.7036
19.4400 13120.6568
19.4500 12973.3106
19.4600 13009.1496
19.4700 12309.9138
19.4800 13313.9958
19.4900 13193.4334
19.5000 12935.5184
19.5100 12369.4166
19.5200 12855.4070
19.5300 12750.5152
19.5400 12674.3090
19.5500 12938.6238
19.5600 12742.9574
19.5700 12655.7788
19.5800 12536.5088
19.5900 12875.3556
19.6000 12603.8786
19.6100 13067.3332
19.6200 12717.7856
19.6300 13309.3278
19.6400 13039.9162
19.6500 13069.8844
19.6600 12684.7656
19.6700 12913.5416
19.6800 13165.9148
19.6900 12632.6644
19.7000 13099.9984
19.7100 13029.2350
19.7200 12893.8110
19.7300 13200.6942
19.7400 12720.8422
19.7500 12753.2072
19.7600 12904.3424
19.7700 12472.8458
19.7800 12676.1386
19.7900 12442.3600
19.8000 12904.3694
19.8100 12377.6742
19.8200 12857.2656
19.8300 12499.0072
19.8400 12449.3588
19.8500 12610.6356
19.8600 12723.6158
19.8700 12749.9796
19.8800 12953.2210
19.8900 12519.1862
19.9000 12490.2328
19.9100 12235.3784
19.9200 13055.1156
19.9300 12300.9000
19.9400 12778.5652
19.9500 12474.9926
19.9600 12907.9044
19.9700 12077.0012
19.9800 12663.8860
19.9900 12806.1182
20.0000 12616.0100
20.0100 12539.1552
20.0200 12042.7450
20.0300 12340.5712
20.0400 13244.3238
20.0500 12649.2880
20.0600 12372.4488
20.0700 12698.4944
20.0800 12527.9794
20.0900 12515.6250
20.1000 12364.3326
20.1100 12610.0276
20.1200 12204.2660
20.1300 12622.9370
20.1400 12380.5420
20.1500 12459.1210
20.1600 11995.0350
20.1700 12296.1466
20.1800 12488.9786
20.1900 12388.1454
20.2000 12387.4512
20.2100 12429.9374
20.2200 12855.5094
20.2300 12430.3784
20.2400 12409.6892
20.2500 12046.6984
20.2600 12474.5394
20.2700 12609.4840
20.2800 11924.7470
20.2900 12077.3990
20.3000 12386.4534
20.3100 12438.5092
20.3200 12441.6064
20.3300 12604.2920
20.3400 12561.0914
20.3500 11956.5608
20.3600 12039.8894
20.3700 12093.5678
20.3800 11900.2408
20.3900 12485.7698
20.4000 12521.9848
20.4100 11976.6252
20.4200 12468.3658
20.4300 12190.6274
20.4400 12283.1380
20.4500 12369.9016
20.4600 12181.5276
20.4700 11809.6484
20.4800 12024.0072
20.4900 12486.5608
20.5000 12083.6848
20.5100 12416.7636
20.5200 12428.6556
20.5300 12044.1382
20.5400 12062.8548
20.5500 12072.6668
20.5600 12798.7346
20.5700 12023.3252
20.5800 11880.2254
20.5900 11748.9160
20.6000 12102.0386
20.6100 12427.3632
20.6200 12629.7078
20.6300 11712.0158
20.6400 12241.3176
20.6500 12076.9410
20.6600 12056.6716
20.6700 12215.9986
20.6800 11893.0314
20.6900 12321.3200
20.7000 11937.5284
20.7100 12187.7286
20.7200 12408.1250
20.7300 12350.3678
20.7400 12221.4640
20.7500 12041.2460
20.7600 11468.8176
20.7700 12084.5500
20.7800 12096.7188
20.7900 12359.1822
20.8000 12241.6716
20.8100 12344.6232
20.8200 11846.1076
20.8300 12032.0100
20.8400 11585.9822
20.8500 12209.8796
20.8600 12319.7046
20.8700 12029.5630
20.8800 12317.5912
20.8900 12106.7740
20.9000 12062.3414
20.9100 11838.0924
20.9200 11706.6032
20.9300 11811.5934
20.9400 11748.6124
20.9500 11583.9860
20.9600 12127.1192
20.9700 11877.3584
20.9800 11966.0538
20.9900 11743.0770
21.0000 11683.2032
21.0100 11724.9820
21.0200 11692.2706
21.0300 11634.8006
21.0400 11930.4834
21.0500 11564.8144
21.0600 11941.8098
21.0700 11723.7102
21.0800 11721.2898
21.0900 11533.8550
21.1000 11686.4672
21.1100 11873.8648
21.1200 11699.8650
21.1300 11566.0376
21.1400 11385.6128
21.1500 11510.7926
21.1600 11254.0388
21.1700 11688.7378
21.1800 11642.2136
21.1900 11333.2634
21.2000 11652.2478
21.2100 11367.4780
21.2200 11996.5690
21.2300 11408.5384
21.2400 11677.1484
21.2500 11840.8642
21.2600 11741.1418
21.2700 11455.0854
21.2800 11448.8640
21.2900 11588.7850
21.3000 11482.1842
21.3100 11418.9006
21.3200 11652.1476
21.3300 11699.1780
21.3400 11663.5018
21.3500 11512.5350
21.3600 11350.8878
21.3700 11493.9518
21.3800 11544.9838
21.3900 11674.5590
21.4000 11427.2672
21.4100 11336.0042
21.4200 11339.3376
21.4300 11510.0252
21.4400 11484.9544
21.4500 11099.3816
21.4600 11392.1264
21.4700 11668.5962
21.4800 11155.0878
21.4900 11303.4774
21.5000 11439.5752
21.5100 11318.1852
21.5200 11326.2418
21.5300 11579.0974
21.5400 11789.6346
21.5500 11695.8292
21.5600 11623.6116
21.5700 11666.9514
21.5800 11239.8650
21.5900 11354.1260
21.6000 11825.1350
21.6100 11707.5920
21.6200 11696.1150
21.6300 11294.8674
21.6400 11152.0500
21.6500 11154.3278
21.6600 10946.1946
21.6700 11098.8168
21.6800 10658.0372
21.6900 11583.6368
21.7000 11595.4802
21.7100 11572.3422
21.7200 11523.6222
21.7300 11424.6224
21.7400 11514.4588
21.7500 11503.4848
21.7600 11210.5754
21.7700 11202.6936
21.7800 10952.2722
21.7900 11155.2758
21.8000 11033.2040
21.8100 11264.0276
21.8200 11620.3280
21.8300 11170.0830
21.8400 11308.2618
21.8500 10879.8624
21.8600 11093.5856
21.8700 11125.0756
21.8800 10692.6628
21.8900 10973.4716
21.9000 11286.6724
21.9100 11179.2252
21.9200 10825.0318
21.9300 11416.8806
21.9400 11379.3376
21.9500 11191.4030
21.9600 11049.7592
21.9700 11259.0250
21.9800 11114.6874
21.9900 10564.6752
22.0000 10950.9636
22.0100 11291.6594
22.0200 11164.1682
22.0300 11030.6128
22.0400 10932.4048
22.0500 10961.2134
22.0600 10990.0472
22.0700 10881.3982
22.0800 10839.4498
22.0900 10821.3566
22.1000 10859.2408
22.1100 11138.7720
22.1200 11293.8256
22.1300 10880.2270
22.1400 10718.8102
22.1500 10799.3010
22.1600 10605.4866
22.1700 11076.1344
22.1800 11160.0952
22.1900 10940.2914
22.2000 11012.2274
22.2100 11280.6062
22.2200 11041.9824
22.2300 11438.6140
22.2400 11045.8504
22.2500 11257.3258
22.2600 11179.2530
22.2700 11513.6532
22.2800 10678.0494
22.2900 10690.3166
22.3000 11442.0590
22.3100 11671.3916
22.3200 11154.4474
22.3300 11113.4506
22.3400 11336.0620
22.3500 11370.7146
22.3600 11308.6564
22.3700 11729.4612
22.3800 11345.7722
22.3900 11109.3766
22.4000 11369.1260
22.4100 11781.0668
22.4200 11522.4658
22.4300 11386.1100
22.4400 11194.9698
22.4500 11292.2250
22.4600 11301.9288
22.4700 11764.6736
22.4800 11573.8232
22.4900 11379.4734
22.5000 11867.2380
22.5100 11401.3746
22.5200 11184.8380
22.5300 11338.7492
22.5400 11021.8514
22.5500 11135.0180
22.5600 11294.4678
22.5700 10883.3064
22.5800 11030.0252
22.5900 10945.2808
22.6000 11236.5096
22.6100 11554.2522
22.6200 11432.7776
22.6300 10618.9348
22.6400 10608.3886
22.6500 11036.1580
22.6600 11236.9784
22.6700 10483.3610
22.6800 10993.7606
22.6900 11031.4404
22.7000 10633.3724
22.7100 10848.1778
22.7200 10679.4002
22.7300 10806.2858
22.7400 10780.3238
22.7500 11030.8928
22.7600 10628.6604
22.7700 10309.6184
22.7800 10678.1348
22.7900 10488.4244
22.8000 10560.4744
22.8100 10429.5914
22.8200 10617.2746
22.8300 10638.5930
22.8400 10555.7072
22.8500 10486.7684
22.8600 10571.9742
22.8700 10682.6448
22.8800 10621.6878
22.8900 10805.7756
22.9000 10394.8974
22.9100 10479.1178
22.9200 10222.9086
22.9300 10053.2666
22.9400 10660.9148
22.9500 10737.3764
22.9600 10417.0842
22.9700 10408.3504
22.9800 10683.0046
22.9900 10750.4980
23.0000 10363.8614
23.0100 10717.1908
23.0200 10687.2844
23.0300 10441.4160
23.0400 10513.7874
23.0500 10515.9440
23.0600 10499.9772
23.0700 10529.7852
23.0800 10301.2574
23.0900 10345.7902
23.1000 10428.8070
23.1100 10703.1698
23.1200 10487.4658
23.1300 10382.1866
23.1400 10484.6142
23.1500 10177.2168
23.1600 10761.1508
23.1700 10194.7950
23.1800 10285.8358
23.1900 10400.1538
23.2000 10896.9296
23.2100 10380.7292
23.2200 9968.8558
23.2300 10164.0128
23.2400 10314.1162
23.2500 10461.9760
23.2600 10344.8754
23.2700 10211.7904
23.2800 10236.2582
23.2900 9760.9220
23.3000 10229.2366
23.3100 10129.4776
23.3200 10149.2806
23.3300 10445.0936
23.3400 10157.2444
23.3500 10545.0390
23.3600 9899.8282
23.3700 10059.0730
23.3800 10108.3676
23.3900 10277.6400
23.4000 10275.2620
23.4100 10270.5818
23.4200 10803.3228
23.4300 10420.7674
23.4400 10444.2350
23.4500 10560.1236
23.4600 10268.6068
23.4700 10706.4364
23.4800 10170.6218
23.4900 10261.1140
23.5000 10047.1256
23.5100 10491.3264
23.5200 10036.0702
23.5300 9795.0618
23.5400 10190.2180
23.5500 10263.1112
23.5600 9755.0302
23.5700 10042.4382
23.5800 9966.6300
23.5900 10605.7242
23.6000 9752.1280
23.6100 9680.3036
23.6200 10068.0990
23.6300 9278.5758
23.6400 10278.4888
23.6500 10066.3648
23.6600 9971.3062
23.6700 10152.3470
23.6800 9817.6944
23.6900 10187.2428
23.7000 9873.1926
23.7100 9939.1822
23.7200 10130.5192
23.7300 9945.7544
23.7400 10149.2586
23.7500 10026.0962
23.7600 9738.7890
23.7700 9860.3816
23.7800 10118.1754
23.7900 10124.9926
23.8000 9604.6012
23.8100 10337.9044
23.8200 10028.1136
23.8300 10116.9246
23.8400 9503.9884
23.8500 10005.4940
23.8600 9647.7662
23.8700 9791.0108
23.8800 9648.5506
23.8900 9898.0566
23.9000 9891.1140
23.9100 9917.1216
23.9200 9717.2470
23.9300 9920.9856
23.9400 9736.7602
23.9500 9474.6492
23.9600 10017.7222
23.9700 9648.6914
23.9800 10013.1242
23.9900 9777.6970
24.0000 9778.8444
24.0100 10018.8028
24.0200 9599.2074
24.0300 9888.5442
24.0400 9739.5728
24.0500 9534.2928
24.0600 9767.3160
24.0700 9983.6108
24.0800 10030.6730
24.0900 9457.5830
24.1000 9772.0312
24.1100 9938.2398
24.1200 9567.6750
24.1300 9803.1128
24.1400 9810.3328
24.1500 9530.3272
24.1600 9165.8666
24.1700 9767.0110
24.1800 10194.8536
24.1900 9922.4162
24.2000 9651.0840
24.2100 9986.1874
24.2200 9783.6174
24.2300 9724.6964
24.2400 9697.5310
24.2500 9812.1036
24.2600 9918.9038
24.2700 9112.6912
24.2800 9652.3894
24.2900 10003.6858
24.3000 9773.0844
24.3100 9538.5702
24.3200 9764.5930
24.3300 10150.0896
24.3400 9529.2424
24.3500 9797.2542
24.3600 9514.4490
24.3700 9105.4166
24.3800 9438.7020
24.3900 9104.1374
24.4000 9235.2482
24.4100 9873.0990
24.4200 9187.0084
24.4300 9493.7084
24.4400 9909.7494
24.4500 9640.1692
24.4600 9747.6018
24.4700 9803.7792
24.4800 9545.8992
24.4900 9702.4130
24.5000 9551.8506
24.5100 9591.6732
24.5200 9461.8864
24.5300 9738.4464
24.5400 9254.9796
24.5500 9989.2758
24.5600 9477.6228
24.5700 9449.5606
24.5800 9842.9516
24.5900 9232.6596
24.6000 9146.7586
24.6100 9522.3886
24.6200 9627.3372
24.6300 9040.2612
24.6400 9134.3782
24.6500 9617.6700
24.6600 9759.1414
24.6700 9511.9678
24.6800 9080.5054
24.6900 9013.6124
24.7000 9434.5694
24.7100 9238.1396
24.7200 9251.4966
24.7300 9799.2920
24.7400 9942.7564
24.7500 9494.7070
24.7600 9647.3958
24.7700 9547.3300
24.7800 9629.1772
24.7900 9480.8724
24.8000 8912.5318
24.8100 9972.8824
24.8200 9766.4576
24.8300 9669.5134
24.8400 9856.2304
24.8500 9606.5112
24.8600 9105.8032
24.8700 9149.4320
24.8800 9137.3242
24.8900 9119.5370
24.9000 9184.5694
24.9100 9299.1382
24.9200 9245.9042
24.9300 8937.2868
24.9400 9138.1420
24.9500 9191.5910
24.9600 9052.0940
24.9700 9294.2936
24.9800 9384.9846
24.9900 9384.5450
25.0000 9524.8478
25.0100 8886.4184
25.0200 9221.2704
25.0300 9291.8018
25.0400 9324.4132
25.0500 9063.6230
25.0600 8981.7390
25.0700 9560.3792
25.0800 9157.6082
25.0900 9299.2716
25.1000 9017.1354
25.1100 8792.7784
25.1200 9174.3002
25.1300 9443.9934
25.1400 9215.1270
25.1500 9240.4598
25.1600 8629.0560
25.1700 8803.0672
25.1800 8627.8028
25.1900 9264.2138
25.2000 9329.5012
25.2100 9197.5586
25.2200 9292.4122
25.2300 9075.4532
25.2400 9043.7744
25.2500 8912.7662
25.2600 9106.7644
25.2700 9012.3194
25.2800 8893.1860
25.2900 9147.2094
25.3000 9031.8880
25.3100 9147.8580
25.3200 9065.2376
25.3300 9237.1192
25.3400 9250.6804
25.3500 9405.9424
25.3600 9204.4596
25.3700 8710.9838
25.3800 8903.5124
25.3900 8998.9226
25.4000 9068.8590
25.4100 8836.4030
25.4200 8951.4242
25.4300 9011.8978
25.4400 9180.4060
25.4500 9003.1576
25.4600 8982.5708
25.4700 9298.5636
25.4800 9165.5388
25.4900 9003.3154
25.5000 9019.2952
25.5100 8960.6316
25.5200 8801.4592
25.5300 8789.6184
25.5400 8862.7482
25.5500 9035.4208
25.5600 9124.3010
25.5700 9562.0442
25.5800 8904.7600
25.5900 8995.1986
25.6000 9116.5406
25.6100 9139.9756
25.6200 9143.5482
25.6300 9012.4104
25.6400 9108.7110
25.6500 8601.5862
25.6600 9096.9060
25.6700 8790.7186
25.6800 8896.2338
25.6900 9062.4260
25.7000 9091.2924
25.7100 8539.5996
25.7200 8529.8852
25.7300 8406.7750
25.7400 8777.3218
25.7500 8886.1816
25.7600 8799.0738
25.7700 9164.2716
25.7800 9145.1554
25.7900 8869.9862
25.8000 8959.3368
25.8100 8721.2068
25.8200 8680.0846
25.8300 8606.7164
25.8400 9131.6806
25.8500 8861.1988
25.8600 8780.4842
25.8700 8949.8544
25.8800 8912.1256
25.8900 8711.3134
25.9000 8759.1780
25.9100 8982.2566
25.9200 8746.2256
25.9300 9071.1646
25.9400 9022.5334
25.9500 9050.0814
25.9600 8679.2154
25.9700 8889.2570
25.9800 8341.1516
25.9900 8495.2352
26.0000 8290.0904
26.0100 9110.1026
26.0200 8706.9442
26.0300 8900.3328
26.0400 8478.2268
26.0500 8558.2642
26.0600 8712.4716
26.0700 9084.6330
26.0800 8896.7896
26.0900 8813.0624
26.1000 8866.5520
26.1100 8684.7534
26.1200 8542.8736
26.1300 8680.7308
26.1400 8687.6742
26.1500 8790.7934
26.1600 9062.5464
26.1700 8812.4878
26.1800 8843.0070
26.1900 8847.2600
26.2000 8911.2182
26.2100 8760.0326
26.2200 8507.1680
26.2300 8955.7894
26.2400 8918.9420
26.2500 9426.1100
26.2600 9305.3858
26.2700 8934.4750
26.2800 8682.3292
26.2900 9105.6420
26.3000 8555.2522
26.3100 8773.4814
26.3200 8760.7584
26.3300 8466.4054
26.3400 8939.8364
26.3500 9088.5896
26.3600 8797.9314
26.3700 8940.8634
26.3800 9112.8002
26.3900 8858.7174
26.4000 8742.1452
26.4100 8591.7846
26.4200 8430.2368
26.4300 8771.9588
26.4400 8617.4040
26.4500 8836.5022
26.4600 8728.9218
26.4700 8571.3500
26.4800 8104.4776
26.4900 8477.1884
26.5000 8887.4170
26.5100 8618.8982
26.5200 8722.1696
26.5300 8600.9522
26.5400 9092.8548
26.5500 8749.4238
26.5600 8998.9208
26.5700 8524.8608
26.5800 8810.8252
26.5900 8555.9514
26.6000 8700.8700
26.6100 8909.0234
26.6200 8929.1626
26.6300 8481.6194
26.6400 8277.9590
26.6500 8414.3286
26.6600 8406.7854
26.6700 8230.5266
26.6800 8549.3766
26.6900 8731.4356
26.7000 8787.1736
26.7100 8804.2310
26.7200 8234.3580
26.7300 8590.6576
26.7400 8749.8292
26.7500 8705.1472
26.7600 8648.0136
26.7700 8505.9050
26.7800 8338.1046
26.7900 8417.7628
26.8000 8319.7022
26.8100 8468.5930
26.8200 8400.4760
26.8300 8575.1106
26.8400 8342.7792
26.8500 8543.7924
26.8600 8422.6254
26.8700 8687.5732
26.8800 8183.8038
26.8900 7910.6690
26.9000 7931.5258
26.9100 8325.8838
26.9200 7944.1748
26.9300 8829.9520
26.9400 8614.4946
26.9500 8415.4516
26.9600 8357.2884
26.9700 8427.9614
26.9800 8316.5470
26.9900 8366.5316
27.0000 8537.8564
27.0100 8149.1544
27.0200 8175.9554
27.0300 8439.5808
27.0400 8335.1058
27.0500 8289.6354
27.0600 8448.3594
27.0700 8347.2452
27.0800 8805.2002
27.0900 8214.3912
27.1000 8812.5692
27.1100 8159.9162
27.1200 8112.0004
27.1300 8808.4188
27.1400 8548.4562
27.1500 8060.5932
27.1600 8627.1786
27.1700 8436.6854
27.1800 8337.7206
27.1900 8162.7514
27.2000 8776.4250
27.2100 8335.7242
27.2200 8561.7578
27.2300 8028.0884
27.2400 8710.6348
27.2500 8448.1868
27.2600 8145.9456
27.2700 8108.9510
27.2800 8166.6504
27.2900 8058.7654
27.3000 8317.0320
27.3100 8036.5502
27.3200 8655.5078
27.3300 8187.4300
27.3400 8505.0236
27.3500 7714.9934
27.3600 8056.7164
27.3700 8383.3122
27.3800 8357.3876
27.3900 8345.2198
27.4000 8524.9772
27.4100 8757.8720
27.4200 8301.3794
27.4300 7974.6566
27.4400 8455.0968
27.4500 8037.0468
27.4600 8209.0234
27.4700 8341.6578
27.4800 8554.0144
27.4900 8138.8542
27.5000 8336.9296
27.5100 8099.6436
27.5200 8115.3614
27.5300 8105.8952
27.5400 7854.5516
27.5500 8307.5496
27.5600 8471.5406
27.5700 8239.7330
27.5800 8088.7630
27.5900 8224.5084
27.6000 8416.1824
27.6100 8334.8006
27.6200 8348.3578
27.6300 8195.4768
27.6400 8390.1790
27.6500 8328.8110
27.6600 8049.7656
27.6700 7983.2804
27.6800 8179.2814
27.6900 8073.5148
27.7000 8154.7828
27.7100 8404.4808
27.7200 8410.5372
27.7300 8005.5436
27.7400 7992.1476
27.7500 8219.7584
27.7600 8251.3590
27.7700 8317.6132
27.7800 8413.9860
27.7900 8374.0902
27.8000 8048.4692
27.8100 8161.2776
27.8200 8012.1280
27.8300 7773.5124
27.8400 8299.7192
27.8500 8228.3936
27.8600 8086.3868
27.8700 8371.5006
27.8800 8074.8404
27.8900 8239.7802
27.9000 8076.1572
27.9100 8088.3252
27.9200 8112.5236
27.9300 8041.8750
27.9400 8212.3300
27.9500 8227.3160
27.9600 8013.0656
27.9700 7992.0956
27.9800 7859.1446
27.9900 7917.7898
28.0000 8162.5610
28.0100 8137.3282
28.0200 7969.3506
28.0300 8409.1162
28.0400 7997.2502
28.0500 8177.2348
28.0600 8084.0210
28.0700 8216.4584
28.0800 8280.5688
28.0900 8294.0316
28.1000 8036.3168
28.1100 7869.8772
28.1200 8487.5090
28.1300 7857.4358
28.1400 8037.7190
28.1500 8260.8114
28.1600 7962.9590
28.1700 7859.3132
28.1800 8166.9450
28.1900 8404.3108
28.2000 8203.2592
28.2100 7742.7962
28.2200 7720.5786
28.2300 8189.3424
28.2400 8527.2452
28.2500 8246.7236
28.2600 7991.6536
28.2700 8016.1124
28.2800 7914.2936
28.2900 7578.8826
28.3000 8182.6082
28.3100 8217.2672
28.3200 8307.3104
28.3300 8352.5642
28.3400 8230.8130
28.3500 8519.8454
28.3600 7982.9704
28.3700 8117.7808
28.3800 7920.3588
28.3900 8511.9198
28.4000 8079.3360
28.4100 8015.1204
28.4200 7940.3328
28.4300 8233.6604
28.4400 8202.1542
28.4500 7923.3902
28.4600 7947.1280
28.4700 8364.8836
28.4800 8009.0332
28.4900 7898.2462
28.5000 7989.2294
28.5100 7967.9638
28.5200 8044.8194
28.5300 8186.6472
28.5400 8146.7342
28.5500 8249.3660
28.5600 8465.3686
28.5700 8043.2658
28.5800 7719.7860
28.5900 8659.8780
28.6000 8450.9522
28.6100 8659.8080
28.6200 8396.0652
28.6300 8049.3742
28.6400 8110.9408
28.6500 8345.2076
28.6600 8187.3356
28.6700 8121.6830
28.6800 8307.3746
28.6900 8036.1588
28.7000 8041.5446
28.7100 8359.9024
28.7200 8375.6600
28.7300 8308.1958
28.7400 8108.3456
28.7500 8601.2134
28.7600 8622.9646
28.7700 8483.9616
28.7800 8318.3122
28.7900 8282.0484
28.8000 8160.4988
28.8100 8044.3554
28.8200 8317.0068
28.8300 8355.8252
28.8400 8403.2674
28.8500 8679.2350
28.8600 8151.8628
28.8700 8190.8618
28.8800 7916.6796
28.8900 8380.0292
28.9000 8442.6302
28.9100 8268.6930
28.9200 8458.6304
28.9300 8023.2520
28.9400 7674.9226
28.9500 8494.5630
28.9600 8038.4334
28.9700 8233.0542
28.9800 8082.6212
28.9900 7741.2434
29.0000 7827.7058
29.0100 7899.9796
29.0200 8045.6982
29.0300 7731.3388
29.0400 8249.6550
29.0500 7937.4398
29.0600 8351.1744
29.0700 7993.1160
29.0800 7934.9910
29.0900 8003.0486
29.1000 7799.3474
29.1100 7807.0174
29.1200 7619.2220
29.1300 7829.1032
29.1400 8164.1098
29.1500 8439.6786
29.1600 7868.2584
29.1700 8044.2294
29.1800 7740.0578
29.1900 8101.5950
29.2000 7756.3020
29.2100 7878.4066
29.2200 8078.3114
29.2300 7990.9464
29.2400 7640.5616
29.2500 7656.8888
29.2600 7860.5200
29.2700 7706.6194
29.2800 8163.2674
29.2900 7944.6362
29.3000 7912.4390
29.3100 7819.0624
29.3200 7390.7096
29.3300 7686.8058
29.3400 7906.6796
29.3500 8050.8170
29.3600 7800.3336
29.3700 7652.7954
29.3800 7565.7958
29.3900 8077.8206
29.4000 7844.3864
29.4100 8119.0934
29.4200 7813.9306
29.4300 7563.0468
29.4400 7730.7120
29.4500 7582.7164
29.4600 8031.2216
29.4700 7878.2862
29.4800 8023.7198
29.4900 7522.5138
29.5000 7749.5158
29.5100 7893.6376
29.5200 7561.5862
29.5300 7652.7978
29.5400 7643.1876
29.5500 7580.9204
29.5600 7758.8746
29.5700 7838.1388
29.5800 7919.6720
29.5900 7593.2080
29.6000 7627.8256
29.6100 7950.0740
29.6200 7709.9772
29.6300 7770.1806
29.6400 7741.3754
29.6500 7844.3416
29.6600 7612.4374
29.6700 7717.8304
29.6800 7586.7008
29.6900 7615.8944
29.7000 7437.0948
29.7100 7496.0026
29.7200 7644.1536
29.7300 7859.4816
29.7400 7472.0020
29.7500 7509.5890
29.7600 7736.8580
29.7700 7930.8790
29.7800 7733.5498
29.7900 7950.8082
29.8000 7291.7278
29.8100 7955.4476
29.8200 7784.3148
29.8300 7682.1378
29.8400 7438.0826
29.8500 7238.9404
29.8600 7685.8440
29.8700 7493.8794
29.8800 7980.4468
29.8900 7624.7550
29.9000 7831.0710
29.9100 7769.5670
29.9200 7793.3024
29.9300 7717.5668
29.9400 7953.1128
29.9500 7770.1514
29.9600 7485.5932
29.9700 7422.2038
29.9800 7508.2528
29.9900 7616.7676
30.0000 7509.9780
30.0100 7557.9890
30.0200 7233.3422
30.0300 7753.7402
30.0400 7887.1630
30.0500 7878.7224
30.0600 7144.9446
30.0700 7675.4654
30.0800 7709.9716
30.0900 7814.1284
30.1000 7501.3746
30.1100 7773.7110
30.1200 7862.4202
30.1300 8003.3544
30.1400 7821.8530
30.1500 7676.9784
30.1600 7583.3790
30.1700 7523.0990
30.1800 7840.0740
30.1900 7967.1908
30.2000 7964.1244
30.2100 8228.3732
30.2200 7806.5446
30.2300 7579.3946
30.2400 7467.4902
30.2500 7645.5160
30.2600 7801.5478
30.2700 7372.2436
30.2800 7439.1708
30.2900 7505.4630
30.3000 7900.9782
30.3100 7859.3954
30.3200 7599.4140
30.3300 7748.5734
30.3400 7666.0490
30.3500 7960.4704
30.3600 7664.3668
30.3700 7591.9792
30.3800 7809.3938
30.3900 7690.2734
30.4000 7719.6614
30.4100 7127.2420
30.4200 7551.9230
30.4300 8057.0858
30.4400 7385.7804
30.4500 7690.5380
30.4600 7502.9900
30.4700 7459.7794
30.4800 7908.3992
30.4900 7803.0078
30.5000 7496.8286
30.5100 7547.2356
30.5200 7459.3432
30.5300 7726.9832
30.5400 7695.2084
30.5500 7386.6106
30.5600 7916.3510
30.5700 7839.1570
30.5800 7958.5686
30.5900 7630.7146
30.6000 7788.1218
30.6100 7408.5734
30.6200 7697.1158
30.6300 7738.4602
30.6400 7631.8758
30.6500 7438.7102
30.6600 7705.4980
30.6700 8273.8972
30.6800 8059.1390
30.6900 7825.7894
30.7000 8108.4676
30.7100 8027.4862
30.7200 7711.9100
30.7300 7427.3552
30.7400 7723.2226
30.7500 7748.7264
30.7600 7885.7772
30.7700 7646.4348
30.7800 7579.8404
30.7900 7689.3026
30.8000 7572.1370
30.8100 7951.1344
30.8200 8026.0164
30.8300 8253.5782
30.8400 7926.0498
30.8500 8206.5104
30.8600 7839.1838
30.8700 8050.7968
30.8800 8135.2556
30.8900 8040.6510
30.9000 8366.9262
30.9100 7662.0516
30.9200 7728.1226
30.9300 8222.6310
30.9400 7931.4812
30.9500 7736.1622
30.9600 7909.7160
30.9700 7827.7206
30.9800 7401.0864
30.9900 7792.9330
31.0000 7868.4750
31.0100 7814.6298
31.0200 8027.7596
31.0300 7921.9206
31.0400 8350.4078
31.0500 8380.1440
31.0600 8212.4812
31.0700 8357.8264
31.0800 8292.1216
31.0900 8175.7584
31.1000 8306.0694
31.1100 7888.9388
31.1200 7929.8926
31.1300 8119.6598
31.1400 8259.7380
31.1500 8217.9794
31.1600 8076.5592
31.1700 8154.1822
31.1800 8241.9116
31.1900 7792.0564
31.2000 8104.6704
31.2100 8573.6784
31.2200 8433.3276
31.2300 8455.3638
31.2400 8384.4010
31.2500 8370.8968
31.2600 8379.0634
31.2700 7865.6560
31.2800 8502.3470
31.2900 8344.7388
31.3000 8447.6896
31.3100 8060.8114
31.3200 8747.6212
31.3300 8008.8118
31.3400 8473.0754
31.3500 8782.9638
31.3600 8187.7930
31.3700 8315.2108
31.3800 8861.0230
31.3900 8767.2470
31.4000 8406.5698
31.4100 8432.5464
31.4200 8836.8718
31.4300 8852.3886
31.4400 8950.9652
31.4500 8686.2492
31.4600 8429.1666
31.4700 8781.1386
31.4800 8652.8572
31.4900 8502.0956
31.5000 8774.8918
31.5100 8522.8474
31.5200 8931.4518
31.5300 9328.1860
31.5400 8956.5486
31.5500 9099.8494
31.5600 9524.7950
31.5700 9508.5442
31.5800 9742.7914
31.5900 10111.8432
31.6000 10008.0126
31.6100 10304.0372
31.6200 10302.2738
31.6300 10910.9252
31.6400 11019.0666
31.6500 11267.7286
31.6600 11804.2538
31.6700 11779.6370
31.6800 11795.2164
31.6900 12667.2338
31.7000 13186.9856
31.7100 13495.9904
31.7200 14185.5598
31.7300 14339.6436
31.7400 14951.9856
31.7500 15749.1976
31.7600 16264.7120
31.7700 17206.8474
31.7800 18114.7592
31.7900 19006.7806
31.8000 19074.5654
31.8100 20219.4174
31.8200 21331.5642
31.8300 22118.2486
31.8400 22903.8736
31.8500 24503.0486
31.8600 24861.6650
31.8700 26159.5312
31.8800 27359.0560
31.8900 28352.8124
31.9000 29743.0502
31.9100 30037.9818
31.9200 30215.9896
31.9300 31791.1264
31.9400 33276.6438
31.9500 33148.0566
31.9600 33549.1178
31.9700 34341.0026
31.9800 34990.6054
31.9900 36063.9356
32.0000 36742.1420
32.0100 36908.2356
32.0200 38088.3072
32.0300 36328.7792
32.0400 37027.7734
32.0500 37446.9174
32.0600 37314.9154
32.0700 36955.0260
32.0800 35217.2494
32.0900 35591.7090
32.1000 35534.7234
32.1100 34921.3868
32.1200 34183.3430
32.1300 33167.2006
32.1400 32269.1602
32.1500 30741.0124
32.1600 29765.4362
32.1700 28466.8002
32.1800 27912.5976
32.1900 25981.9840
32.2000 24287.9492
32.2100 23468.8720
32.2200 22327.2120
32.2300 21145.1074
32.2400 19582.5310
32.2500 18797.6514
32.2600 17902.5830
32.2700 16612.0818
32.2800 15441.5576
32.2900 14118.4228
32.3000 13429.0152
32.3100 13001.3452
32.3200 12290.0984
32.3300 11711.7708
32.3400 11362.5146
32.3500 10684.9732
32.3600 10401.2198
32.3700 10092.7498
32.3800 9668.8810
32.3900 9552.2868
32.4000 9476.6032
32.4100 9423.2772
32.4200 9071.3476
32.4300 9048.1380
32.4400 8889.4076
32.4500 8836.2924
32.4600 8570.7560
32.4700 8851.8082
32.4800 8542.8882
32.4900 8718.0590
32.5000 8045.1034
32.5100 8341.1100
32.5200 8453.7044
32.5300 8399.5866
32.5400 8285.3174
32.5500 8505.1074
32.5600 8330.3736
32.5700 8009.9374
32.5800 7941.6170
32.5900 7675.3808
32.6000 7620.7682
32.6100 7882.0678
32.6200 7724.1854
32.6300 8279.1220
32.6400 7684.8396
32.6500 7885.5004
32.6600 8105.9130
32.6700 8105.3710
32.6800 7925.6998
32.6900 7878.5058
32.7000 7965.7332
32.7100 7970.1376
32.7200 8332.4324
32.7300 7985.6364
32.7400 7899.5728
32.7500 7652.9786
32.7600 7636.3794
32.7700 7830.7438
32.7800 7714.4768
32.7900 7614.1918
32.8000 7577.0866
32.8100 7832.8230
32.8200 7806.3818
32.8300 7873.4692
32.8400 8090.4768
32.8500 7749.4214
32.8600 7556.4608
32.8700 7552.5944
32.8800 7767.6464
32.8900 7610.2776
32.9000 7493.9242
32.9100 7357.5416
32.9200 7623.7320
32.9300 7485.4036
32.9400 7600.5786
32.9500 7780.4590
32.9600 7691.3118
32.9700 7476.5438
32.9800 7657.4226
32.9900 7524.5280
33.0000 7064.2358
33.0100 7110.4118
33.0200 7620.8936
33.0300 7540.8642
33.0400 7770.2010
33.0500 7593.4350
33.0600 7390.8220
33.0700 7639.6036
33.0800 7400.3124
33.0900 7575.1962
33.1000 7701.2102
33.1100 7682.4236
33.1200 7493.1592
33.1300 7528.2918
33.1400 7634.0844
33.1500 7270.0528
33.1600 7533.9526
33.1700 7153.1046
33.1800 7572.9126
33.1900 7828.5294
33.2000 7507.2234
33.2100 7178.3554
33.2200 7357.5016
33.2300 7394.9130
33.2400 7366.5104
33.2500 7331.0018
33.2600 7507.3022
33.2700 7195.7634
33.2800 7466.9776
33.2900 7362.8980
33.3000 7176.0238
33.3100 7373.0070
33.3200 7744.2154
33.3300 7631.9418
33.3400 7372.2632
33.3500 7586.9010
33.3600 7760.2058
33.3700 7382.4146
33.3800 7421.3990
33.3900 7455.0302
33.4000 7641.1230
33.4100 7457.0792
33.4200 7445.3020
33.4300 7241.1760
33.4400 6863.2340
33.4500 7263.9804
33.4600 7443.9738
33.4700 7559.0748
33.4800 7327.4918
33.4900 7118.4578
33.5000 7283.6678
33.5100 7353.3398
33.5200 7339.7526
33.5300 7384.6672
33.5400 7146.9466
33.5500 7575.1896
33.5600 7250.5640
33.5700 7537.1224
33.5800 6849.0088
33.5900 7209.9080
33.6000 7147.8678
33.6100 7309.7160
33.6200 7409.9162
33.6300 7075.2222
33.6400 7319.7706
33.6500 7355.1848
33.6600 7454.4824
33.6700 7018.2250
33.6800 7672.8304
33.6900 7530.1676
33.7000 7163.3602
33.7100 7249.3888
33.7200 7195.1106
33.7300 7149.8022
33.7400 7480.4664
33.7500 7586.8074
33.7600 7409.7086
33.7700 6964.6558
33.7800 7461.1524
33.7900 7642.9866
33.8000 7632.8052
33.8100 7496.4860
33.8200 6882.1858
33.8300 7091.6780
33.8400 6965.0292
33.8500 7472.0744
33.8600 7410.8358
33.8700 6983.6394
33.8800 7163.3650
33.8900 7287.0052
33.9000 7290.5966
33.9100 7098.7354
33.9200 7025.7714
33.9300 7329.3318
33.9400 7342.0548
33.9500 7075.7520
33.9600 7333.5824
33.9700 7438.3724
33.9800 7705.7698
33.9900 7134.7176
34.0000 7004.3506
34.0100 7424.7200
34.0200 7313.2250
34.0300 7342.0622
34.0400 7421.5096
34.0500 7456.1450
34.0600 7513.4188
34.0700 7197.6342
34.0800 7272.3210
34.0900 7452.2924
34.1000 7279.4654
34.1100 7110.9358
34.1200 7160.6430
34.1300 6903.6922
34.1400 7031.1084
34.1500 7150.3280
34.1600 6760.6258
34.1700 6897.8556
34.1800 7486.5478
34.1900 7223.8924
34.2000 7120.5216
34.2100 7389.3920
34.2200 6970.3378
34.2300 7162.2242
34.2400 7325.1278
34.2500 6711.6858
34.2600 7019.3530
34.2700 6951.4680
34.2800 7192.8378
34.2900 7809.1618
34.3000 7336.6496
34.3100 7312.3934
34.3200 7350.5826
34.3300 7424.5476
34.3400 7541.7464
34.3500 7143.5970
34.3600 7221.7626
34.3700 7077.2168
34.3800 7204.9496
34.3900 7254.2358
34.4000 7573.2804
34.4100 7204.7046
34.4200 7124.0242
34.4300 6737.4454
34.4400 6953.7662
34.4500 7273.3984
34.4600 6967.1866
34.4700 7067.6098
34.4800 6887.2624
34.4900 7168.6166
34.5000 7193.7980
34.5100 7040.0920
34.5200 7015.3474
34.5300 7107.9012
34.5400 7202.3274
34.5500 7232.7458
34.5600 7043.7084
34.5700 6872.1614
34.5800 6766.9152
34.5900 7107.2966
34.6000 7229.9268
34.6100 7191.9840
34.6200 7360.7706
34.6300 7286.8172
34.6400 7024.0446
34.6500 6957.7246
34.6600 7152.6904
34.6700 7067.5244
34.6800 7135.1546
34.6900 7567.2486
34.7000 7523.3684
34.7100 7495.8912
34.7200 7036.9548
34.7300 7174.8478
34.7400 6973.6254
34.7500 7054.7338
34.7600 7135.0464
34.7700 7096.1508
34.7800 6872.1688
34.7900 7234.6394
34.8000 7426.3518
34.8100 6987.2688
34.8200 7042.0328
34.8300 7211.9450
34.8400 7202.6970
34.8500 6968.4098
34.8600 7082.4374
34.8700 7093.4928
34.8800 7104.8990
34.8900 6777.2958
34.9000 7442.6954
34.9100 7383.6296
34.9200 7098.6344
34.9300 7423.8062
34.9400 7235.9074
34.9500 7413.3504
34.9600 7281.9198
34.9700 7234.8600
34.9800 6930.4882
34.9900 6972.8206
35.0000 7114.8324
35.0100 7206.3110
35.0200 7326.3012
35.0300 7328.3610
35.0400 7065.8082
35.0500 7201.0214
35.0600 7018.4708
35.0700 7399.9568
35.0800 6885.9774
35.0900 6958.9558
35.1000 6948.3440
35.1100 7163.4472
35.1200 7074.6476
35.1300 6939.9862
35.1400 6918.3878
35.1500 7002.7766
35.1600 7227.6586
35.1700 7039.0520
35.1800 7292.8890
35.1900 7349.4930
35.2000 7327.7930
35.2100 7084.9244
35.2200 7146.9246
35.2300 7420.6836
35.2400 7450.3524
35.2500 7534.8714
35.2600 6999.8860
35.2700 7167.0694
35.2800 6918.1194
35.2900 7315.5624
35.3000 7127.7930
35.3100 7227.0874
35.3200 6972.2820
35.3300 7243.7680
35.3400 7282.3926
35.3500 7170.8764
35.3600 7029.9252
35.3700 7190.5656
35.3800 6879.6778
35.3900 6582.3356
35.4000 7197.7368
35.4100 7306.2630
35.4200 7216.5698
35.4300 7155.3442
35.4400 7223.9454
35.4500 6890.1212
35.4600 6868.1552
35.4700 7559.5556
35.4800 6938.9038
35.4900 7045.5868
35.5000 7486.0360
35.5100 7614.7388
35.5200 6899.9382
35.5300 7177.0590
35.5400 7166.9612
35.5500 7460.2898
35.5600 7391.3574
35.5700 7469.6264
35.5800 6747.6856
35.5900 7172.4568
35.6000 6882.8402
35.6100 7250.5420
35.6200 7244.9862
35.6300 7141.8702
35.6400 7383.5336
35.6500 7450.5232
35.6600 7202.1386
35.6700 6973.9192
35.6800 7102.1118
35.6900 7366.0604
35.7000 7706.4794
35.7100 7520.9830
35.7200 7492.0110
35.7300 6751.2338
35.7400 7190.8862
35.7500 6978.5774
35.7600 7185.5958
35.7700 7263.0118
35.7800 7144.7242
35.7900 7291.1946
35.8000 7002.4610
35.8100 6725.7178
35.8200 7128.4334
35.8300 7128.0688
35.8400 7209.6012
35.8500 6977.1988
35.8600 6776.2886
35.8700 7066.3736
35.8800 6805.0834
35.8900 6610.3108
35.9000 7052.5456
35.9100 7181.9938
35.9200 7175.4078
35.9300 7189.1186
35.9400 7282.4674
35.9500 7199.9340
35.9600 7090.4086
35.9700 7072.9306
35.9800 7315.8936
35.9900 7119.1464
36.0000 6884.7550
36.0100 7127.9606
36.0200 7097.9890
36.0300 7286.1638
36.0400 7157.5358
36.0500 6667.7168
36.0600 6746.9914
36.0700 6980.8870
36.0800 7041.7774
36.0900 6993.7898
36.1000 7130.2792
36.1100 7140.2458
36.1200 6970.0424
36.1300 7019.3108
36.1400 6784.7596
36.1500 6953.9462
36.1600 6844.1300
36.1700 7114.4076
36.1800 7026.3908
36.1900 7082.7408
36.2000 7088.4000
36.2100 7292.7906
36.2200 6923.1884
36.2300 7290.0196
36.2400 7014.8950
36.2500 6949.6858
36.2600 7259.1764
36.2700 7188.7574
36.2800 6995.0188
36.2900 7063.9364
36.3000 7091.4078
36.3100 6804.9898
36.3200 7436.2460
36.3300 7068.9128
36.3400 7294.1578
36.3500 6921.8538
36.3600 7431.6008
36.3700 7137.3738
36.3800 7150.9952
36.3900 7235.3386
36.4000 6879.5198
36.4100 7211.0432
36.4200 7154.1602
36.4300 7086.7326
36.4400 7082.4926
36.4500 7148.6360
36.4600 7218.9746
36.4700 7099.8624
36.4800 7128.5148
36.4900 6955.4704
36.5000 7014.2546
36.5100 7380.9790
36.5200 7394.6892
36.5300 7512.4708
36.5400 7396.1988
36.5500 7160.2930
36.5600 7122.2128
36.5700 7629.0870
36.5800 7348.9160
36.5900 7362.3168
36.6000 7271.8474
36.6100 6927.8134
36.6200 7061.7936
36.6300 6964.7322
36.6400 7366.9532
36.6500 7305.3198
36.6600 7392.2746
36.6700 7114.4970
36.6800 7019.0698
36.6900 7020.2408
36.7000 7421.6456
36.7100 7154.9780
36.7200 7127.7938
36.7300 7540.0618
36.7400 7413.3040
36.7500 6760.9530
36.7600 7408.2828
36.7700 7636.8238
36.7800 7464.3238
36.7900 7264.2862
36.8000 7480.9888
36.8100 7489.4914
36.8200 7087.3544
36.8300 7069.2830
36.8400 7239.3832
36.8500 7177.5822
36.8600 7179.8072
36.8700 7044.3156
36.8800 7248.8192
36.8900 7093.1194
36.9000 6957.1484
36.9100 6881.9556
36.9200 7091.8164
36.9300 7096.0538
36.9400 6968.6726
36.9500 6895.8936
36.9600 6885.8814
36.9700 7286.7050
36.9800 6989.4174
36.9900 7264.7762
37.0000 7063.2332
37.0100 7064.5182
37.0200 7116.3038
37.0300 6790.9734
37.0400 6993.6280
37.0500 7044.6842
37.0600 7403.2552
37.0700 6853.9892
37.0800 7186.3746
37.0900 6931.5642
37.1000 6464.0796
37.1100 7041.3282
37.1200 7350.8936
37.1300 7376.6162
37.1400 7421.7032
37.1500 7109.4376
37.1600 7085.3352
37.1700 7017.2372
37.1800 7086.8546
37.1900 6856.4242
37.2000 7146.1988
37.2100 6891.6358
37.2200 7315.8684
37.2300 6953.6028
37.2400 7284.1650
37.2500 7053.4822
37.2600 7141.6202
37.2700 7427.2550
37.2800 7075.9302
37.2900 7097.8410
37.3000 6851.4120
37.3100 7039.5426
37.3200 7245.4672
37.3300 7263.2308
37.3400 7017.4218
37.3500 6976.0872
37.3600 7025.1708
37.3700 7107.3258
37.3800 7218.7288
37.3900 7005.7674
37.4000 6679.8646
37.4100 6962.1028
37.4200 7010.8220
37.4300 7023.3806
37.4400 7010.3906
37.4500 6856.3900
37.4600 7180.6128
37.4700 7226.3908
37.4800 7114.0658
37.4900 6967.6652
37.5000 6759.3066
37.5100 7298.7426
37.5200 7079.1438
37.5300 7134.7306
37.5400 7216.4282
37.5500 7020.2270
37.5600 7059.6858
37.5700 6841.7814
37.5800 7172.3852
37.5900 7128.0876
37.6000 7082.4218
37.6100 7188.3496
37.6200 6817.6644
37.6300 7105.8822
37.6400 7016.8010
37.6500 6828.1656
37.6600 7077.8816
37.6700 7514.4996
37.6800 7315.8684
37.6900 7017.6172
37.7000 7095.4346
37.7100 6952.6114
37.7200 6894.7566
37.7300 7301.1556
37.7400 7345.9456
37.7500 7146.1482
37.7600 7113.2128
37.7700 7243.4586
37.7800 7382.7466
37.7900 7140.8326
37.8000 7398.8184
37.8100 7453.6084
37.8200 7181.2134
37.8300 7056.0302
37.8400 7050.8846
37.8500 6885.2498
37.8600 7239.4906
37.8700 6961.6764
37.8800 6774.8396
37.8900 6806.2084
37.9000 6968.2910
37.9100 6806.0498
37.9200 7135.2734
37.9300 7353.3520
37.9400 7162.9118
37.9500 7318.6174
37.9600 7211.5162
37.9700 7124.8340
37.9800 7254.5362
37.9900 7484.1114
38.0000 7192.4358
38.0100 6923.3634
38.0200 7051.5552
38.0300 7244.4166
38.0400 7113.4904
38.0500 7073.2080
38.0600 7335.7764
38.0700 6938.2846
38.0800 7025.8536
38.0900 6767.1256
38.1000 7211.4934
38.1100 6925.3834
38.1200 6947.5138
38.1300 6908.6532
38.1400 6975.8414
38.1500 6701.7244
38.1600 7092.1794
38.1700 7288.5352
38.1800 7025.5746
38.1900 7210.0822
38.2000 7022.7238
38.2100 7265.9692
38.2200 7544.7696
38.2300 7107.8792
38.2400 7171.0652
38.2500 7463.4936
38.2600 7186.3192
38.2700 7032.9272
38.2800 7274.8404
38.2900 7124.7224
38.3000 7158.8282
38.3100 7398.8932
38.3200 7261.1352
38.3300 6963.3268
38.3400 6904.2050
38.3500 7035.0212
38.3600 7076.0604
38.3700 6789.4048
38.3800 7274.1056
38.3900 7128.1420
38.4000 7173.2836
38.4100 7105.2514
38.4200 7509.8982
38.4300 7494.0258
38.4400 7273.1738
38.4500 7177.7652
38.4600 7003.5164
38.4700 7092.5504
38.4800 7295.9008
38.4900 7352.4910
38.5000 7265.0056
38.5100 7308.7240
38.5200 7439.8876
38.5300 7000.2076
38.5400 7422.9664
38.5500 7254.1658
38.5600 7235.4354
38.5700 7244.2732
38.5800 7276.9742
38.5900 7215.4192
38.6000 7216.7862
38.6100 6891.2874
38.6200 7079.4100
38.6300 7081.2402
38.6400 7270.4118
38.6500 7193.4636
38.6600 7413.4872
38.6700 7253.5140
38.6800 7173.8998
38.6900 7111.7644
38.7000 7054.4524
38.7100 7302.1802
38.7200 6903.0542
38.7300 7258.9412
38.7400 7331.4664
38.7500 7096.5372
38.7600 6864.4718
38.7700 7190.9928
38.7800 7054.8056
38.7900 7448.5270
38.8000 7094.1894
38.8100 7200.8366
38.8200 7490.0756
38.8300 7662.8580
38.8400 7458.5604
38.8500 7087.9680
38.8600 7811.7180
38.8700 7188.9412
38.8800 6757.6558
38.8900 6911.9156
38.9000 7027.0044
38.9100 7368.4684
38.9200 7048.9332
38.9300 7166.4356
38.9400 7081.7888
38.9500 7067.3772
38.9600 7278.0144
38.9700 7454.5386
38.9800 7281.8994
38.9900 7348.8770
39.0000 7254.7038
39.0100 7553.7094
39.0200 7464.2164
39.0300 7079.8934
39.0400 7399.9406
39.0500 7265.4086
39.0600 7141.4568
39.0700 7594.6606
39.0800 7447.2778
39.0900 7364.1202
39.1000 7170.4330
39.1100 7282.8922
39.1200 7292.6124
39.1300 7347.2152
39.1400 7460.4224
39.1500 7560.0236
39.1600 7676.3176
39.1700 7567.3136
39.1800 7642.1070
39.1900 7872.4952
39.2000 7568.7240
39.2100 7807.3372
39.2200 7778.1998
39.2300 8260.5574
39.2400 8117.6090
39.2500 8307.3820
39.2600 8128.9046
39.2700 8348.6548
39.2800 8646.0994
39.2900 8558.2032
39.3000 8872.3682
39.3100 9284.0348
39.3200 8875.7918
39.3300 9279.4182
39.3400 9479.4442
39.3500 9804.0292
39.3600 9456.8066
39.3700 9944.4540
39.3800 9924.4970
39.3900 10335.6022
39.4000 10514.7314
39.4100 10696.8278
39.4200 11021.0808
39.4300 10985.1880
39.4400 11467.4780
39.4500 11244.2618
39.4600 11635.3214
39.4700 11795.3694
39.4800 12141.2280
39.4900 12103.5320
39.5000 13173.0436
39.5100 12386.5870
39.5200 12711.2638
39.5300 12800.0212
39.5400 12563.8086
39.5500 13094.8494
39.5600 12913.7166
39.5700 13379.5304
39.5800 12825.6714
39.5900 12753.7540
39.6000 12709.9804
39.6100 12982.2086
39.6200 13388.9786
39.6300 12849.7574
39.6400 13137.4218
39.6500 13211.0628
39.6600 12279.3188
39.6700 12388.4130
39.6800 12266.9474
39.6900 12138.8614
39.7000 12296.7172
39.7100 11888.6060
39.7200 11902.5170
39.7300 11334.7022
39.7400 11670.8334
39.7500 11600.7748
39.7600 11185.2840
39.7700 10537.2648
39.7800 10535.8700
39.7900 9688.7296
39.8000 9537.8288
39.8100 9847.7148
39.8200 9389.4336
39.8300 9132.8946
39.8400 8942.7434
39.8500 8788.9022
39.8600 8651.5210
39.8700 8526.6000
39.8800 8232.6156
39.8900 7927.4088
39.9000 8384.1618
39.9100 8070.3394
39.9200 7680.7926
39.9300 7864.5468
39.9400 7791.8050
39.9500 8049.7786
39.9600 7914.9984
39.9700 8089.3750
39.9800 7959.0056
39.9900 7830.9790
40.0000 7713.1356
40.0100 7944.1724
40.0200 7153.6630
40.0300 7321.2020
40.0400 7687.1476
40.0500 7594.4402
40.0600 6964.9658
40.0700 7442.7636
40.0800 7305.1660
40.0900 7280.2758
40.1000 7791.5064
40.1100 7262.3910
40.1200 7259.6272
40.1300 6911.1832
40.1400 7134.1902
40.1500 6913.3536
40.1600 7016.7888
40.1700 7021.7260
40.1800 7276.7488
40.1900 7297.0792
40.2000 7223.7810
40.2100 7383.5742
40.2200 7083.7198
40.2300 7021.8912
40.2400 7211.4934
40.2500 7196.6528
40.2600 7469.1830
40.2700 6746.9768
40.2800 7324.3172
40.2900 7208.9494
40.3000 7182.3088
40.3100 6837.7400
40.3200 6801.6936
40.3300 7338.2592
40.3400 7211.8612
40.3500 7002.3340
40.3600 7076.8620
40.3700 7357.1696
40.3800 7053.8998
40.3900 6659.2192
40.4000 6956.4714
40.4100 7201.1816
40.4200 6705.8598
40.4300 7177.5318
40.4400 6760.3430
40.4500 6831.6456
40.4600 7099.7152
40.4700 7159.7436
40.4800 6818.5812
40.4900 6959.3058
40.5000 7180.5860
40.5100 7331.2598
40.5200 7051.3086
40.5300 7043.0778
40.5400 7242.0572
40.5500 7087.8662
40.5600 7087.6986
40.5700 6855.3728
40.5800 6954.5378
40.5900 7263.2250
40.6000 7574.4962
40.6100 7040.5200
40.6200 7215.5746
40.6300 7178.6386
40.6400 6831.0140
40.6500 6709.0120
40.6600 7011.3908
40.6700 6999.1324
40.6800 7033.2414
40.6900 7004.9236
40.7000 6870.7104
40.7100 6777.8976
40.7200 6663.5176
40.7300 7022.1770
40.7400 7361.2638
40.7500 6998.9184
40.7600 7431.9506
40.7700 7362.5090
40.7800 6745.4570
40.7900 7348.6214
40.8000 7348.5084
40.8100 7090.7772
40.8200 7337.5724
40.8300 6858.4936
40.8400 6714.0946
40.8500 7142.5310
40.8600 7389.2082
40.8700 7025.6080
40.8800 7236.9116
40.8900 6824.5724
40.9000 7154.6208
40.9100 7374.8096
40.9200 7230.2278
40.9300 7334.4156
40.9400 7214.7356
40.9500 7019.1138
40.9600 7206.3982
40.9700 6943.8110
40.9800 7234.4124
40.9900 7381.9506
41.0000 7063.5962
41.0100 7426.3110
41.0200 7176.0066
41.0300 7042.0320
41.0400 6967.4348
41.0500 7201.3208
41.0600 6729.6900
41.0700 7454.8584
41.0800 7809.0616
41.0900 7450.9782
41.1000 7066.6700
41.1100 7478.7394
41.1200 7163.4148
41.1300 7348.4684
41.1400 7301.9710
41.1500 7107.4072
41.1600 7236.2802
41.1700 7152.4308
41.1800 7392.2884
41.1900 6905.4158
41.2000 7396.2548
41.2100 7493.3334
41.2200 7719.2822
41.2300 7431.7440
41.2400 7283.3496
41.2500 7492.4226
41.2600 7735.5118
41.2700 7396.6106
41.2800 7491.1972
41.2900 7272.5146
41.3000 7151.2084
41.3100 7000.2514
41.3200 7378.4830
41.3300 6795.0110
41.3400 7044.9918
41.3500 7132.9542
41.3600 7397.4910
41.3700 7573.7094
41.3800 7440.0358
41.3900 7420.2172
41.4000 7521.2028
41.4100 7271.1638
41.4200 7223.6466
41.4300 7269.7802
41.4400 7493.7500
41.4500 7276.5380
41.4600 7245.9138
41.4700 7284.6964
41.4800 7005.3702
41.4900 7403.6386
41.5000 7395.7576
41.5100 6981.2964
41.5200 6887.8214
41.5300 7007.2444
41.5400 7036.8702
41.5500 7154.9788
41.5600 7148.2600
41.5700 7640.9384
41.5800 6955.2808
41.5900 7235.6958
41.6000 7165.4728
41.6100 7210.5404
41.6200 7092.7848
41.6300 7364.8690
41.6400 7182.1582
41.6500 7319.6224
41.6600 7245.7242
41.6700 6938.2626
41.6800 7022.8914
41.6900 7203.9184
41.7000 7240.2816
41.7100 7382.4658
41.7200 7148.9364
41.7300 7338.6630
41.7400 6978.9526
41.7500 6974.8666
41.7600 7107.6506
41.7700 7352.1012
41.7800 7087.5896
41.7900 6852.8556
41.8000 6941.6512
41.8100 7151.7814
41.8200 7029.2196
41.8300 7144.6778
41.8400 6988.6800
41.8500 7135.7024
41.8600 7461.3412
41.8700 7082.6018
41.8800 7148.5074
41.8900 7392.3658
41.9000 6760.9734
41.9100 6974.8144
41.9200 6975.0488
41.9300 7140.5656
41.9400 6895.0196
41.9500 6886.5266
41.9600 7075.4598
41.9700 6856.8684
41.9800 7168.3536
41.9900 7087.7198
42.0000 7393.6962
42.0100 7145.1790
42.0200 6718.0998
42.0300 6723.2772
42.0400 7155.5738
42.0500 6998.0982
42.0600 7163.7134
42.0700 7348.0444
42.0800 6983.3830
42.0900 7340.3922
42.1000 7371.0074
42.1100 7147.1264
42.1200 7152.0004
42.1300 6740.4630
42.1400 6952.1980
42.1500 6907.0362
42.1600 7164.0218
42.1700 7224.4084
42.1800 6997.2250
42.1900 7164.4060
42.2000 7005.5998
42.2100 7027.5032
42.2200 7156.3152
42.2300 7441.9076
42.2400 7252.1964
42.2500 6937.8882
42.2600 7284.4254
42.2700 6804.8202
42.2800 7109.8494
42.2900 7121.1410
42.3000 6928.4122
42.3100 6960.6828
42.3200 7166.5414
42.3300 6974.0886
42.3400 6877.1972
42.3500 7108.4514
42.3600 7401.6666
42.3700 7282.6660
42.3800 7080.8204
42.3900 6576.6220
42.4000 6865.7886
42.4100 6925.4078
42.4200 7038.2324
42.4300 6999.4742
42.4400 7208.2894
42.4500 6838.4708
42.4600 6785.7552
42.4700 6472.6372
42.4800 6733.0940
42.4900 6507.2908
42.5000 6806.6064
42.5100 6812.9590
42.5200 6627.2364
42.5300 7188.9608
42.5400 7019.7404
42.5500 7057.3690
42.5600 6886.3704
42.5700 6878.6654
42.5800 6828.0468
42.5900 6911.7408
42.6000 6916.2036
42.6100 6864.3098
42.6200 6996.4706
42.6300 7039.5752
42.6400 6967.4602
42.6500 7197.9924
42.6600 6794.5918
42.6700 7056.1458
42.6800 6506.6402
42.6900 6819.3958
42.7000 7031.1426
42.7100 6819.8650
42.7200 7056.0970
42.7300 6975.1954
42.7400 6978.1420
42.7500 7078.1306
42.7600 7208.0322
42.7700 7019.8080
42.7800 6640.7116
42.7900 6966.7090
42.8000 6657.7434
42.8100 7161.1368
42.8200 6845.5924
42.8300 6712.3222
42.8400 6866.2028
42.8500 6831.0652
42.8600 6949.1716
42.8700 7245.7942
42.8800 6764.6798
42.8900 6907.7620
42.9000 7308.4758
42.9100 7276.3126
42.9200 6828.4244
42.9300 6872.7530
42.9400 7032.6782
42.9500 7335.5722
42.9600 7066.5478
42.9700 7084.5426
42.9800 6907.7564
42.9900 7421.2662
43.0000 7229.2268
43.0100 7125.4500
43.0200 6878.6458
43.0300 6912.9786
43.0400 6908.3016
43.0500 6842.4430
43.0600 6738.5812
43.0700 7141.5486
43.0800 7041.7504
43.0900 6979.8396
43.1000 7329.2740
43.1100 6886.7138
43.1200 6696.3400
43.1300 6816.7050
43.1400 7149.4548
43.1500 7006.7896
43.1600 6950.8610
43.1700 7188.3862
43.1800 7254.2310
43.1900 7121.1858
43.2000 7080.5314
43.2100 6991.1076
43.2200 6891.5804
43.2300 7027.9972
43.2400 7196.7138
43.2500 6822.7294
43.2600 6915.1408
43.2700 6797.0358
43.2800 7349.5582
43.2900 7215.6096
43.3000 7338.5336
43.3100 7073.5686
43.3200 6937.5904
43.3300 7074.0438
43.3400 7072.6212
43.3500 7184.0170
43.3600 7041.9270
43.3700 7000.8308
43.3800 7068.4586
43.3900 7100.3548
43.4000 7200.8260
43.4100 7304.8250
43.4200 7313.6686
43.4300 7024.4978
43.4400 6898.0818
43.4500 6874.1220
43.4600 7026.6252
43.4700 7212.4976
43.4800 6816.4668
43.4900 6644.6936
43.5000 7032.1630
43.5100 7340.0896
43.5200 7340.3736
43.5300 6782.3238
43.5400 7132.5936
43.5500 6886.1946
43.5600 6805.9554
43.5700 6650.3516
43.5800 7111.2654
43.5900 7546.1938
43.6000 7595.3556
43.6100 6605.8894
43.6200 6755.1172
43.6300 7134.4840
43.6400 6775.3902
43.6500 6872.0434
43.6600 7290.1774
43.6700 7100.2320
43.6800 6774.7372
43.6900 6648.8310
43.7000 6569.5072
43.7100 6812.9354
43.7200 7483.7264
43.7300 7012.6726
43.7400 7016.9108
43.7500 6649.8506
43.7600 7444.1602
43.7700 7068.8884
43.7800 6957.9052
43.7900 7283.5042
43.8000 6841.0148
43.8100 7165.4296
43.8200 6610.9232
43.8300 6561.1706
43.8400 6944.5736
43.8500 7219.7932
43.8600 7346.8824
43.8700 7183.3366
43.8800 7028.0966
43.8900 7128.7492
43.9000 6973.8720
43.9100 7031.5608
43.9200 7303.5458
43.9300 7395.6640
43.9400 7066.5292
43.9500 7399.2366
43.9600 7129.4018
43.9700 7155.1448
43.9800 6843.7468
43.9900 6870.8960
44.0000 7036.4462
44.0100 7139.9398
44.0200 7121.9296
44.0300 7055.0074
44.0400 7105.7430
44.0500 7226.5910
44.0600 7071.1540
44.0700 7264.3734
44.0800 7231.9930
44.0900 6805.8456
44.1000 7070.7650
44.1100 7058.4864
44.1200 7180.6128
44.1300 7151.0108
44.1400 7316.5560
44.1500 7272.5748
44.1600 6938.7548
44.1700 7265.9026
44.1800 7019.2032
44.1900 7080.8586
44.2000 7067.2958
44.2100 7105.4484
44.2200 7357.2486
44.2300 7314.6638
44.2400 7678.2748
44.2500 7490.0700
44.2600 6987.2810
44.2700 6862.5496
44.2800 7133.3318
44.2900 7054.3124
44.3000 7209.1244
44.3100 7296.7504
44.3200 7247.0158
44.3300 7169.3554
44.3400 7357.9166
44.3500 7147.7002
44.3600 6827.5252
44.3700 6903.0688
44.3800 6787.9668
44.3900 7217.7628
44.4000 7211.6324
44.4100 7267.5228
44.4200 7231.1532
44.4300 7033.9022
44.4400 7414.0470
44.4500 7250.3808
44.4600 7286.2484
44.4700 7374.9830
44.4800 7155.8422
44.4900 7315.8798
44.5000 6908.6848
44.5100 7261.9156
44.5200 7417.7116
44.5300 7382.6058
44.5400 7187.0386
44.5500 7477.6848
44.5600 7501.4078
44.5700 7287.6310
44.5800 6959.6566
44.5900 6661.2728
44.6000 7306.2216
44.6100 7310.8554
44.6200 6919.6444
44.6300 7377.4324
44.6400 7297.0426
44.6500 7236.3778
44.6600 7152.9484
44.6700 7916.5502
44.6800 7238.3544
44.6900 6880.2792
44.7000 7182.9532
44.7100 7279.0886
44.7200 7528.6824
44.7300 7420.4354
44.7400 7226.7228
44.7500 7173.4416
44.7600 7544.0852
44.7700 7108.0274
44.7800 7223.5230
44.7900 7536.1858
44.8000 7258.5694
44.8100 7608.3024
44.8200 7226.5650
44.8300 7310.2856
44.8400 7312.5586
44.8500 7333.0144
44.8600 7469.1016
44.8700 7094.8836
44.8800 7421.4648
44.8900 7515.5136
44.9000 7181.1962
44.9100 7255.5608
44.9200 7237.3356
44.9300 7436.8978
44.9400 7287.2738
44.9500 6864.9130
44.9600 7609.9194
44.9700 7475.7324
44.9800 7186.7538
44.9900 6982.2672
45.0000 7064.2668
45.0100 7106.6602
45.0200 7195.1994
45.0300 7328.9192
45.0400 7010.7658
45.0500 7422.4462
45.0600 7151.8172
45.0700 6877.7026
45.0800 6996.5340
45.0900 7283.6368
45.1000 7516.5372
45.1100 7293.9478
45.1200 7310.1840
45.1300 7322.9410
45.1400 7192.8588
45.1500 6976.1100
45.1600 7176.3086
45.1700 7256.4478
45.1800 7693.4766
45.1900 7114.9740
45.2000 7421.3306
45.2100 7391.4086
45.2200 7383.4636
45.2300 7547.6050
45.2400 7403.9078
45.2500 7559.7022
45.2600 7404.7502
45.2700 7231.8554
45.2800 7439.1284
45.2900 7557.1916
45.3000 7242.7132
45.3100 7630.5738
45.3200 7798.8534
45.3300 7623.0974
45.3400 7273.1640
45.3500 7699.7868
45.3600 7847.2444
45.3700 7779.8396
45.3800 7508.5904
45.3900 7280.5396
45.4000 7598.5002
45.4100 8038.3740
45.4200 8077.4308
45.4300 7413.3130
45.4400 7765.0634
45.4500 7887.5700
45.4600 7643.3838
45.4700 8059.6078
45.4800 7602.4952
45.4900 8496.7424
45.5000 7714.3392
45.5100 7897.9606
45.5200 8435.0562
45.5300 8192.1078
45.5400 8321.2924
45.5500 8199.6386
45.5600 8236.2882
45.5700 8061.7228
45.5800 8142.5546
45.5900 8695.3614
45.6000 8441.0074
45.6100 8470.5860
45.6200 8230.6608
45.6300 8507.4186
45.6400 9037.4740
45.6500 9023.5914
45.6600 9354.8316
45.6700 9064.3782
45.6800 8909.5110
45.6900 8856.8326
45.7000 9398.4994
45.7100 9441.4616
45.7200 9591.9042
45.7300 9884.2416
45.7400 10435.3540
45.7500 10363.4220
45.7600 10207.6440
45.7700 10812.4724
45.7800 10848.5034
45.7900 11298.6516
45.8000 11442.4130
45.8100 11645.0000
45.8200 11933.2120
45.8300 12393.5074
45.8400 12647.1940
45.8500 13125.6258
45.8600 13811.9352
45.8700 13739.2708
45.8800 14044.0250
45.8900 14356.2516
45.9000 14678.6328
45.9100 15378.3040
45.9200 16416.2532
45.9300 16056.5966
45.9400 16482.2558
45.9500 17133.3382
45.9600 17477.9460
45.9700 17784.3326
45.9800 18421.1588
45.9900 19414.8080
46.0000 19469.9968
46.0100 19533.4050
46.0200 19884.0170
46.0300 20178.1934
46.0400 20990.4850
46.0500 20678.0452
46.0600 21153.5482
46.0700 21301.3378
46.0800 21162.9166
46.0900 21683.5238
46.1000 21151.8164
46.1100 21816.6406
46.1200 21598.2714
46.1300 21359.2220
46.1400 21137.7442
46.1500 21307.2168
46.1600 20760.6722
46.1700 21052.5586
46.1800 21010.7064
46.1900 21221.7740
46.2000 20056.7610
46.2100 20311.2468
46.2200 19545.1220
46.2300 19091.6438
46.2400 19016.0302
46.2500 18739.9544
46.2600 17828.3594
46.2700 17840.7504
46.2800 17115.0228
46.2900 16601.0888
46.3000 15855.7390
46.3100 15622.9492
46.3200 15137.5374
46.3300 14566.4454
46.3400 13644.0284
46.3500 13808.9062
46.3600 13246.1108
46.3700 12404.4336
46.3800 12387.5562
46.3900 11573.4074
46.4000 11238.5310
46.4100 10604.2740
46.4200 10829.9984
46.4300 10669.6956
46.4400 10189.0422
46.4500 9778.5392
46.4600 9436.8334
46.4700 9601.7164
46.4800 9169.2774
46.4900 9258.0876
46.5000 9080.3516
46.5100 8683.0372
46.5200 8733.7980
46.5300 8821.7382
46.5400 8280.4330
46.5500 8192.0572
46.5600 8558.5914
46.5700 8335.4988
46.5800 8055.5566
46.5900 7668.8762
46.6000 7614.1438
46.6100 7475.8822
46.6200 7876.6406
46.6300 7848.7312
46.6400 7785.5738
46.6500 7725.1612
46.6600 7592.4080
46.6700 7865.8536
46.6800 8066.2094
46.6900 7639.6688
46.7000 7661.0766
46.7100 7470.4768
46.7200 7381.2190
46.7300 7388.0314
46.7400 7369.2350
46.7500 7182.9680
46.7600 7503.4562
46.7700 7558.4374
46.7800 7308.0876
46.7900 7338.3090
46.8000 7439.1560
46.8100 7409.2766
46.8200 7376.4990
46.8300 6828.8542
46.8400 7274.3466
46.8500 7567.1402
46.8600 7369.4808
46.8700 7344.5614
46.8800 7450.3238
46.8900 7542.7262
46.9000 7386.6732
46.9100 7239.3458
46.9200 7625.7576
46.9300 7677.2868
46.9400 7470.2068
46.9500 7338.8876
46.9600 7200.3614
46.9700 7363.9860
46.9800 7349.3246
46.9900 7297.0768
47.0000 7374.6200
47.0100 7248.2226
47.0200 7189.1040
47.0300 7392.2224
47.0400 7319.4938
47.0500 7326.9638
47.0600 7207.9044
47.0700 7434.5598
47.0800 7321.0946
47.0900 7251.0914
47.1000 7294.2798
47.1100 7383.2552
47.1200 7302.0760
47.1300 7156.8482
47.1400 7493.3618
47.1500 7482.6082
47.1600 7148.3570
47.1700 7462.4724
47.1800 7360.8928
47.1900 7235.0390
47.2000 7411.6056
47.2100 7498.3732
47.2200 7482.2770
47.2300 7703.8754
47.2400 7214.4360
47.2500 7218.4026
47.2600 7403.4196
47.2700 6996.5486
47.2800 6710.4668
47.2900 7481.5364
47.3000 7204.3148
47.3100 7344.4816
47.3200 7317.5196
47.3300 7761.0254
47.3400 7226.8522
47.3500 6907.7824
47.3600 6893.3936
47.3700 7004.9576
47.3800 7005.0114
47.3900 6906.5186
47.4000 7094.1098
47.4100 7441.7586
47.4200 7186.2338
47.4300 7254.8894
47.4400 7209.4986
47.4500 7093.8720
47.4600 7546.2948
47.4700 6993.2332
47.4800 7165.9986
47.4900 7235.7072
47.5000 6944.6158
47.5100 6926.3420
47.5200 7297.3608
47.5300 7220.6746
47.5400 7641.3590
47.5500 7496.6520
47.5600 6899.3482
47.5700 7106.3240
47.5800 6808.1864
47.5900 7177.0572
47.6000 7187.5790
47.6100 7322.6050
47.6200 6821.3168
47.6300 7312.2412
47.6400 7195.3728
47.6500 7096.2110
47.6600 7100.4028
47.6700 7338.6572
47.6800 7120.1074
47.6900 7414.7510
47.7000 7296.0530
47.7100 7618.6556
47.7200 7400.6788
47.7300 6975.0204
47.7400 7131.5072
47.7500 6799.6550
47.7600 6886.0734
47.7700 7033.4970
47.7800 7031.6918
47.7900 7623.6036
47.8000 6782.8438
47.8100 7203.3928
47.8200 7074.7730
47.8300 7179.5272
47.8400 7141.8108
47.8500 7160.5208
47.8600 6879.1952
47.8700 6785.9086
47.8800 6979.7942
47.8900 7268.8754
47.9000 7044.2514
47.9100 7187.4040
47.9200 7337.7758
47.9300 6902.5862
47.9400 6940.5396
47.9500 6837.5618
47.9600 7179.4930
47.9700 6961.4934
47.9800 7136.5666
47.9900 7299.4296
48.0000 7378.2942
48.0100 7219.8088
48.0200 7212.8222
48.0300 7213.4058
48.0400 7062.0394
48.0500 7169.6216
48.0600 6797.8410
48.0700 7109.6150
48.0800 7243.7060
48.0900 7031.3126
48.1000 7008.9168
48.1100 7232.6586
48.1200 6933.1844
48.1300 7179.1666
48.1400 7038.7826
48.1500 7079.1544
48.1600 7332.0240
48.1700 6868.0892
48.1800 6736.5308
48.1900 7004.7924
48.2000 7389.2750
48.2100 7198.3780
48.2200 6820.7954
48.2300 7025.3630
48.2400 7045.2970
48.2500 7087.6270
48.2600 7032.3764
48.2700 7313.7818
48.2800 6990.0480
48.2900 7326.2320
48.3000 6713.9908
48.3100 6683.6088
48.3200 7173.8354
48.3300 7014.7770
48.3400 7330.7478
48.3500 6926.9580
48.3600 7517.1818
48.3700 7153.1250
48.3800 7403.5262
48.3900 6612.8256
48.4000 6799.0144
48.4100 6707.1086
48.4200 7315.1106
48.4300 6718.1376
48.4400 7062.4772
48.4500 6484.2460
48.4600 6720.9082
48.4700 6998.9624
48.4800 7135.9554
48.4900 7158.5644
48.5000 6965.6258
48.5100 6775.0786
48.5200 6978.0640
48.5300 7211.5536
48.5400 6873.8046
48.5500 6936.2084
48.5600 7133.4480
48.5700 6804.0388
48.5800 7096.2150
48.5900 7173.7574
48.6000 7285.6046
48.6100 7394.5582
48.6200 6863.1006
48.6300 7202.9296
48.6400 7047.8492
48.6500 7079.7998
48.6600 6864.2164
48.6700 6838.4742
48.6800 7065.8780
48.6900 6930.9498
48.7000 6762.2078
48.7100 6881.8270
48.7200 6989.1788
48.7300 6848.3798
48.7400 6843.3846
48.7500 6992.0712
48.7600 6903.2364
48.7700 7395.8326
48.7800 7212.8442
48.7900 6746.1128
48.8000 6642.0122
48.8100 6747.6794
48.8200 6924.8974
48.8300 7014.8046
48.8400 6944.2570
48.8500 7235.8724
48.8600 7092.9654
48.8700 7391.7220
48.8800 6938.7916
48.8900 7049.7420
48.9000 6996.9938
48.9100 7061.7294
48.9200 6804.0642
48.9300 6809.9252
48.9400 7258.8688
48.9500 7075.1132
48.9600 7116.0432
48.9700 6839.4288
48.9800 7002.8654
48.9900 6934.7038
49.0000 7001.6740
49.0100 7237.9070
49.0200 6819.5378
49.0300 6770.5054
49.0400 6745.5018
49.0500 6801.2598
49.0600 6749.3172
49.0700 6873.2414
49.0800 7105.9212
49.0900 6869.6192
49.1000 7174.5076
49.1100 7385.1220
49.1200 7249.5442
49.1300 7144.4156
49.1400 6893.0778
49.1500 6793.0900
49.1600 7088.8388
49.1700 6780.6502
49.1800 6762.9280
49.1900 6899.9690
49.2000 6977.6562
49.2100 7070.5086
49.2200 7119.3172
49.2300 6600.0326
49.2400 7017.8410
49.2500 7321.6748
49.2600 6958.9884
49.2700 6953.4448
49.2800 7276.2434
49.2900 7042.4064
49.3000 6659.3522
49.3100 6833.6174
49.3200 6971.4852
49.3300 7139.5548
49.3400 7048.4636
49.3500 6731.0978
49.3600 7160.9416
49.3700 6814.3522
49.3800 7110.5778
49.3900 7172.9720
49.4000 7336.5300
49.4100 7037.9606
49.4200 7045.2246
49.4300 6926.0994
49.4400 6881.0538
49.4500 6777.4658
49.4600 6849.2660
49.4700 7199.1016
49.4800 7197.0948
49.4900 7238.5360
49.5000 7236.2492
49.5100 7079.9618
49.5200 6726.2342
49.5300 7254.1830
49.5400 6879.5418
49.5500 7030.4630
49.5600 7080.6892
49.5700 6808.6150
49.5800 7176.8188
49.5900 6936.5340
49.6000 7201.7008
49.6100 7231.0856
49.6200 7093.5938
49.6300 6836.7334
49.6400 7000.4654
49.6500 6934.9984
49.6600 7005.5168
49.6700 6832.5846
49.6800 7124.4702
49.6900 7183.6800
49.7000 7289.8690
49.7100 7347.7262
49.7200 7045.3548
49.7300 7035.2962
49.7400 6725.4444
49.7500 7165.6218
49.7600 7016.2826
49.7700 7465.0000
49.7800 7241.2784
49.7900 7073.6580
49.8000 7211.4958
49.8100 7248.6572
49.8200 6857.2608
49.8300 6888.3326
49.8400 7147.9306
49.8500 7188.7776
49.8600 7170.8040
49.8700 7407.3528
49.8800 6986.4314
49.8900 6635.6592
49.9000 7239.4612
49.9100 6759.5446
49.9200 7079.1114
49.9300 6799.1692
49.9400 7248.8184
49.9500 6905.5240
49.9600 6940.6462
49.9700 6761.5512
49.9800 7220.4110
49.9900 7017.6098
50.0000 6709.5956
50.0100 6550.1704
50.0200 6917.9672
50.0300 7026.0238
50.0400 7067.4764
50.0500 6700.1456
50.0600 6721.4868
50.0700 6811.2064
50.0800 7200.7454
50.0900 6898.9200
50.1000 7080.5566
50.1100 7083.8818
50.1200 6827.1370
50.1300 7072.6472
50.1400 7198.2902
50.1500 6991.1336
50.1600 7093.8794
50.1700 6775.8138
50.1800 7164.7852
50.1900 6795.5628
50.2000 6719.4946
50.2100 7310.9676
50.2200 7111.0888
50.2300 7171.4298
50.2400 6777.8308
50.2500 6883.8428
50.2600 7189.6452
50.2700 6846.4274
50.2800 7041.3868
50.2900 7249.1040
50.3000 6634.6330
50.3100 6817.3282
50.3200 7237.4390
50.3300 7217.5008
50.3400 6856.3224
50.3500 7121.8798
50.3600 6972.0638
50.3700 7087.8702
50.3800 7108.1934
50.3900 6948.7076
50.4000 6879.3400
50.4100 6991.9760
50.4200 6998.4628
50.4300 7219.4914
50.4400 6942.3446
50.4500 6450.6816
50.4600 7221.8840
50.4700 6631.8132
50.4800 6838.8518
50.4900 6901.2680
50.5000 6725.6998
50.5100 6705.7268
50.5200 7021.9002
50.5300 6801.3964
50.5400 6830.0586
50.5500 6944.6402
50.5600 6941.8466
50.5700 7044.9732
50.5800 6747.3038
50.5900 6906.1254
50.6000 6962.1696
50.6100 6823.2386
50.6200 7385.6210
50.6300 7492.6578
50.6400 7530.4444
50.6500 7052.5024
50.6600 6946.2150
50.6700 6671.0066
50.6800 7066.6178
50.6900 6797.1496
50.7000 7071.1824
50.7100 7240.7048
50.7200 6878.2910
50.7300 7187.2102
50.7400 7162.4772
50.7500 7280.5152
50.7600 7047.8288
50.7700 6993.9860
50.7800 6843.1852
50.7900 7118.4936
50.8000 7032.2770
50.8100 7247.5976
50.8200 6693.1914
50.8300 7274.0926
50.8400 7223.8028
50.8500 6861.3028
50.8600 7098.6036
50.8700 6888.3602
50.8800 6751.7334
50.8900 6713.8628
50.9000 6919.8974
50.9100 6948.4164
50.9200 7179.5426
50.9300 7161.3264
50.9400 7033.6670
50.9500 6952.8914
50.9600 7124.1064
50.9700 6838.9786
50.9800 7207.9322
50.9900 6854.0478
51.0000 7264.2032
51.0100 6813.6654
51.0200 6880.8846
51.0300 6897.7214
51.0400 6815.5806
51.0500 6912.2250
51.0600 6755.1896
51.0700 6744.8250
51.0800 7367.3186
51.0900 7115.9612
51.1000 6945.7804
51.1100 7231.7846
51.1200 6967.3738
51.1300 7071.7790
51.1400 7030.6698
51.1500 6751.1824
51.1600 7681.7774
51.1700 7166.4372
51.1800 7011.2866
51.1900 7281.6366
51.2000 6915.1156
51.2100 7078.9478
51.2200 7337.6326
51.2300 7679.0202
51.2400 7149.4190
51.2500 7161.9800
51.2600 7080.3710
51.2700 7500.2644
51.2800 7091.3736
51.2900 7375.9252
51.3000 6828.0232
51.3100 7055.2058
51.3200 7052.2924
51.3300 7472.3046
51.3400 7242.0882
51.3500 7131.6748
51.3600 6855.5388
51.3700 7642.8124
51.3800 7133.2992
51.3900 7271.1272
51.4000 7418.5604
51.4100 7246.8628
51.4200 7676.9108
51.4300 7510.2620
51.4400 7408.0566
51.4500 7209.8640
51.4600 7037.0346
51.4700 7276.4462
51.4800 7446.8970
51.4900 7269.9732
51.5000 7201.2532
51.5100 7184.7844
51.5200 7413.8510
51.5300 6721.7342
51.5400 7464.3294
51.5500 7478.7792
51.5600 7181.1238
51.5700 7133.4912
51.5800 6839.9130
51.5900 7536.1988
51.6000 6889.7412
51.6100 7160.2474
51.6200 6770.2226
51.6300 6887.2762
51.6400 7253.1998
51.6500 6931.6634
51.6600 7214.5980
51.6700 7110.5640
51.6800 7109.7452
51.6900 7311.1490
51.7000 7368.9428
51.7100 7357.1736
51.7200 7385.7406
51.7300 7801.4942
51.7400 7666.6642
51.7500 7490.9278
51.7600 7308.7752
51.7700 7765.1604
51.7800 7327.5586
51.7900 7224.9748
51.8000 7316.1930
51.8100 6979.1830
51.8200 7239.2952
51.8300 7408.6744
51.8400 7552.8564
51.8500 7492.8410
51.8600 7592.0704
51.8700 7696.8482
51.8800 7652.0500
51.8900 7276.9848
51.9000 7825.0896
51.9100 7588.1576
51.9200 8052.8898
51.9300 7469.6500
51.9400 8007.9346
51.9500 8133.7810
51.9600 7813.6320
51.9700 7846.7122
51.9800 7920.0048
51.9900 7561.8098
52.0000 7279.0608
52.0100 7721.7342
52.0200 8124.5736
52.0300 7743.1560
52.0400 7547.8280
52.0500 7804.5922
52.0600 7786.6032
52.0700 7676.0792
52.0800 7702.4202
52.0900 7350.0318
52.1000 7423.8526
52.1100 7379.4156
52.1200 7938.0232
52.1300 7680.3076
52.1400 7540.5558
52.1500 7596.7570
52.1600 7650.7902
52.1700 7431.1158
52.1800 7562.0410
52.1900 7265.7698
52.2000 7346.5170
52.2100 7259.4946
52.2200 7245.5640
52.2300 7458.7736
52.2400 7642.1810
52.2500 7226.9628
52.2600 7143.4464
52.2700 7602.8956
52.2800 7562.4358
52.2900 7136.8628
52.3000 7002.1208
52.3100 7143.8998
52.3200 7148.0314
52.3300 7311.2272
52.3400 7264.6752
52.3500 7005.6290
52.3600 7314.4132
52.3700 6884.6892
52.3800 6731.1116
52.3900 6664.0560
52.4000 7381.4926
52.4100 7078.1070
52.4200 7166.3510
52.4300 7097.0564
52.4400 6886.4624
52.4500 6763.4916
52.4600 6694.1142
52.4700 7358.6264
52.4800 7543.2722
52.4900 7465.9986
52.5000 7336.1874
52.5100 7316.2606
52.5200 6989.3310
52.5300 6707.9512
52.5400 7317.5374
52.5500 7107.4870
52.5600 6804.9430
52.5700 7021.4314
52.5800 7304.5458
52.5900 7266.4274
52.6000 6788.0852
52.6100 6872.6172
52.6200 7128.0216
52.6300 6974.1130
52.6400 6755.6144
52.6500 6818.1954
52.6600 7003.3194
52.6700 7609.8682
52.6800 7218.3090
52.6900 7222.8230
52.7000 7098.0762
52.7100 6924.7152
52.7200 6733.4680
52.7300 7166.5918
52.7400 7043.1552
52.7500 7177.3128
52.7600 7034.6362
52.7700 7382.6864
52.7800 6980.2530
52.7900 6907.1606
52.8000 6839.9186
52.8100 6891.8970
52.8200 7277.6408
52.8300 7159.2146
52.8400 7380.3736
52.8500 7220.9318
52.8600 7237.7068
52.8700 7313.1934
52.8800 6543.3696
52.8900 6864.0030
52.9000 7079.7112
52.9100 7400.7764
52.9200 6953.0240
52.9300 7079.3880
52.9400 7139.3694
52.9500 6993.8998
52.9600 7245.7658
52.9700 7055.0578
52.9800 7060.3792
52.9900 7473.7208
53.0000 6695.5680
53.0100 7440.1050
53.0200 7000.8308
53.0300 6653.7166
53.0400 7153.5636
53.0500 7063.0354
53.0600 7203.9234
53.0700 7073.9314
53.0800 7061.4746
53.0900 7059.3570
53.1000 6757.6118
53.1100 7000.9734
53.1200 6854.5362
53.1300 6765.4326
53.1400 6980.1018
53.1500 6675.9480
53.1600 6993.6174
53.1700 7343.8900
53.1800 7235.7698
53.1900 7531.6334
53.2000 6861.7082
53.2100 7016.8058
53.2200 7189.4532
53.2300 7104.6004
53.2400 6951.2654
53.2500 7214.6240
53.2600 7431.4990
53.2700 7269.1886
53.2800 7071.4916
53.2900 6877.4236
53.3000 7181.1524
53.3100 6835.6144
53.3200 6844.0870
53.3300 7115.3060
53.3400 7141.5438
53.3500 7077.0540
53.3600 6829.5206
53.3700 6969.6280
53.3800 6823.1420
53.3900 6664.1780
53.4000 6914.3424
53.4100 7289.9886
53.4200 7125.9708
53.4300 7087.3584
53.4400 7183.6376
53.4500 7018.8232
53.4600 6828.5816
53.4700 7102.2852
53.4800 7140.9652
53.4900 7184.5858
53.5000 6915.7226
53.5100 6924.8332
53.5200 7135.6796
53.5300 7364.2806
53.5400 7134.5614
53.5500 6629.1032
53.5600 6999.8836
53.5700 7149.0258
53.5800 6785.9912
53.5900 7108.3342
53.6000 6862.3706
53.6100 6983.8696
53.6200 7009.1228
53.6300 7077.2770
53.6400 7185.5502
53.6500 7290.6412
53.6600 6981.0050
53.6700 7223.3472
53.6800 7149.7696
53.6900 6864.3408
53.7000 7103.6434
53.7100 7084.7338
53.7200 7101.5666
53.7300 6833.1250
53.7400 6845.3100
53.7500 6958.0436
53.7600 6737.8788
53.7700 6638.8070
53.7800 6666.8562
53.7900 6929.7224
53.8000 7050.2702
53.8100 7171.1320
53.8200 6740.3902
53.8300 7147.8996
53.8400 7204.8014
53.8500 6561.9182
53.8600 6604.6790
53.8700 7028.1844
53.8800 7361.9296
53.8900 6691.0522
53.9000 6787.1268
53.9100 7071.0506
53.9200 6722.2334
53.9300 7015.1522
53.9400 6934.9366
53.9500 6619.1674
53.9600 6686.1218
53.9700 6829.6012
53.9800 6999.4336
53.9900 6836.4934
54.0000 7036.6830
54.0100 7072.5342
54.0200 6946.0702
54.0300 7256.5958
54.0400 6982.0248
54.0500 7180.0000
54.0600 7300.0610
54.0700 7077.5912
54.0800 7167.2738
54.0900 7166.5276
54.1000 7054.8902
54.1100 6906.9760
54.1200 6867.1630
54.1300 7052.8044
54.1400 6924.3538
54.1500 7348.6116
54.1600 6894.6102
54.1700 7166.5128
54.1800 7175.2540
54.1900 7344.4612
54.2000 6993.0908
54.2100 7067.8386
54.2200 6959.3538
54.2300 7053.9046
54.2400 7036.8164
54.2500 7003.9470
54.2600 7098.8736
54.2700 6796.6540
54.2800 7124.9170
54.2900 7020.1392
54.3000 7406.6886
54.3100 6935.1318
54.3200 7354.8104
54.3300 7462.1850
54.3400 7164.2400
54.3500 7177.4830
54.3600 6894.0048
54.3700 7194.8226
54.3800 7014.1894
54.3900 7060.3956
54.4000 6714.9996
54.4100 7473.7646
54.4200 6927.0304
54.4300 6811.4958
54.4400 7238.5188
54.4500 6846.3404
54.4600 6841.7286
54.4700 7037.1656
54.4800 7196.3940
54.4900 6908.8590
54.5000 6850.2906
54.5100 7017.6856
54.5200 6829.5346
54.5300 6685.6206
54.5400 6709.0288
54.5500 7149.7038
54.5600 7258.1298
54.5700 6779.5324
54.5800 6944.0258
54.5900 7190.9538
54.6000 7188.0266
54.6100 7174.6802
54.6200 6911.3566
54.6300 6831.1386
54.6400 6928.1942
54.6500 7355.4428
54.6600 6945.4980
54.6700 7386.2882
54.6800 7155.7186
54.6900 7249.2636
54.7000 7190.0692
54.7100 7188.9690
54.7200 7095.4744
54.7300 6802.4304
54.7400 7049.8292
54.7500 6971.1744
54.7600 6937.7612
54.7700 6898.7150
54.7800 7071.6480
54.7900 6927.5390
54.8000 7210.4126
54.8100 7128.0844
54.8200 7266.7724
54.8300 7346.4648
54.8400 6824.8758
54.8500 6879.4312
54.8600 7286.8222
54.8700 7150.2962
54.8800 6536.3298
54.8900 7280.6762
54.9000 6969.7470
54.9100 7025.9392
54.9200 7431.8474
54.9300 7407.7848
54.9400 7106.2508
54.9500 7166.0580
54.9600 7209.2904
54.9700 7283.9534
54.9800 7064.4524
54.9900 7457.4016
55.0000 6966.9628
55.0100 7469.9292
55.0200 7353.2544
55.0300 6918.2902
55.0400 6794.9194
55.0500 7106.2272
55.0600 7347.3438
55.0700 7096.3542
55.0800 7039.1236
55.0900 7073.6336
55.1000 7286.4404
55.1100 7069.4524
55.1200 7223.7760
55.1300 6859.2740
55.1400 7032.0288
55.1500 7328.0420
55.1600 6833.4530
55.1700 6855.5908
55.1800 6963.8346
55.1900 7515.7902
55.2000 7361.3338
55.2100 7607.4366
55.2200 7969.3628
55.2300 7343.6190
55.2400 7189.0242
55.2500 7278.7802
55.2600 7002.2388
55.2700 7109.7550
55.2800 7258.4814
55.2900 6971.2004
55.3000 7215.7162
55.3100 7428.1250
55.3200 7109.7436
55.3300 6992.9842
55.3400 7313.8818
55.3500 7332.0434
55.3600 7189.3652
55.3700 7341.6284
55.3800 7297.0622
55.3900 6758.9188
55.4000 6819.9830
55.4100 7142.3128
55.4200 7055.8952
55.4300 7308.0444
55.4400 7146.7488
55.4500 6946.9124
55.4600 7143.7394
55.4700 7185.8798
55.4800 7541.6146
55.4900 6966.9458
55.5000 7354.5354
55.5100 7189.4304
55.5200 7316.8636
55.5300 6786.8466
55.5400 7441.4502
55.5500 7160.5216
55.5600 6902.9696
55.5700 7140.1864
55.5800 7104.2968
55.5900 7004.0796
55.6000 7180.7674
55.6100 7352.7962
55.6200 7094.5930
55.6300 7230.3458
55.6400 7016.2402
55.6500 7472.8060
55.6600 7214.2390
55.6700 7332.9802
55.6800 7065.6950
55.6900 7275.9978
55.7000 7223.7882
55.7100 7237.7172
55.7200 7321.5772
55.7300 7016.2556
55.7400 7501.2346
55.7500 7074.2936
55.7600 7261.1028
55.7700 7457.8890
55.7800 7364.1936
55.7900 7187.3274
55.8000 7187.4096
55.8100 7177.5798
55.8200 6870.5144
55.8300 6837.7548
55.8400 7101.1988
55.8500 6935.8414
55.8600 6735.1538
55.8700 6891.3176
55.8800 7230.6860
55.8900 7108.0924
55.9000 7054.5662
55.9100 7290.2474
55.9200 7310.0716
55.9300 7248.0208
55.9400 7538.1576
55.9500 7199.9968
55.9600 6760.5278
55.9700 7018.6426
55.9800 7093.5474
55.9900 7155.3084
56.0000 7270.9244
56.0100 7018.0258
56.0200 7419.3352
56.0300 7275.2360
56.0400 7037.8516
56.0500 6954.9520
56.0600 7331.1646
56.0700 7071.4380
56.0800 7234.9032
56.0900 7368.4530
56.1000 7100.5900
56.1100 7067.5432
56.1200 7419.2952
56.1300 6758.5234
56.1400 7511.3640
56.1500 7114.9194
56.1600 6983.4114
56.1700 7538.1404
56.1800 7257.9688
56.1900 7070.7968
56.2000 7313.2146
56.2100 7121.4128
56.2200 7139.8966
56.2300 7064.0332
56.2400 7368.5628
56.2500 7227.6042
56.2600 7344.1700
56.2700 7039.8510
56.2800 7478.0306
56.2900 7534.5028
56.3000 7456.6162
56.3100 7263.9600
56.3200 7237.4854
56.3300 7331.5950
56.3400 7347.0214
56.3500 7403.7012
56.3600 7427.9200
56.3700 7325.6552
56.3800 7505.8406
56.3900 7342.8516
56.4000 7635.6542
56.4100 7454.7322
56.4200 7621.9278
56.4300 7527.2974
56.4400 7404.8536
56.4500 7518.4026
56.4600 8010.4964
56.4700 7732.0532
56.4800 7525.5136
56.4900 7773.8940
56.5000 7424.9186
56.5100 7280.0740
56.5200 7509.5174
56.5300 7263.1836
56.5400 7441.6220
56.5500 7373.4896
56.5600 7384.8910
56.5700 7451.0922
56.5800 7633.3854
56.5900 7741.4462
56.6000 7424.1496
56.6100 7769.4190
56.6200 7364.5394
56.6300 7285.2352
56.6400 7577.7076
56.6500 7239.7836
56.6600 7539.4304
56.6700 7576.4950
56.6800 7698.6580
56.6900 7854.4816
56.7000 8004.7006
56.7100 7716.0466
56.7200 7533.8566
56.7300 7443.3878
56.7400 7445.8350
56.7500 7481.7610
56.7600 7776.0254
56.7700 7656.7862
56.7800 7984.4434
56.7900 7615.6242
56.8000 7661.2434
56.8100 7884.4662
56.8200 8258.6710
56.8300 8261.2338
56.8400 7878.8712
56.8500 7766.0376
56.8600 8025.9228
56.8700 7504.7290
56.8800 7988.5766
56.8900 8092.7068
56.9000 8010.0066
56.9100 8444.5492
56.9200 8243.2870
56.9300 8387.6718
56.9400 8318.1396
56.9500 8086.7586
56.9600 8393.0598
56.9700 8496.6260
56.9800 8300.5152
56.9900 8914.2188
57.0000 8697.0214
57.0100 8955.2198
57.0200 8715.6844
57.0300 9002.3942
57.0400 9343.0046
57.0500 9910.1668
57.0600 10016.3680
57.0700 9825.7870
57.0800 10490.6902
57.0900 10350.8220
57.1000 10835.8764
57.1100 11062.5326
57.1200 11078.8004
57.1300 11161.3818
57.1400 11728.8590
57.1500 12153.9356
57.1600 12343.2690
57.1700 12732.0564
57.1800 12448.8778
57.1900 13659.8714
57.2000 13896.6666
57.2100 14023.5302
57.2200 14466.7692
57.2300 14895.3352
57.2400 15027.2574
57.2500 15096.9010
57.2600 15796.0108
57.2700 17101.3362
57.2800 17040.9130
57.2900 17587.1728
57.3000 17750.5730
57.3100 18470.0424
57.3200 19239.0398
57.3300 19576.2598
57.3400 19903.0030
57.3500 19983.3252
57.3600 19946.9954
57.3700 21127.6026
57.3800 20562.2234
57.3900 21397.9036
57.4000 21734.0380
57.4100 21806.5836
57.4200 21561.7252
57.4300 21448.8624
57.4400 22149.3278
57.4500 21797.2932
57.4600 22296.8554
57.4700 22217.7540
57.4800 21965.6918
57.4900 21942.2136
57.5000 21423.7076
57.5100 21840.5860
57.5200 21475.0342
57.5300 21808.3138
57.5400 21043.4408
57.5500 20739.4710
57.5600 20880.9034
57.5700 20081.8132
57.5800 19247.2348
57.5900 19856.6992
57.6000 18744.1130
57.6100 18889.6126
57.6200 18825.5030
57.6300 17375.5598
57.6400 17025.4654
57.6500 16473.6084
57.6600 16182.1550
57.6700 15695.4638
57.6800 15181.1816
57.6900 14934.1080
57.7000 13743.4782
57.7100 13603.5278
57.7200 13706.6910
57.7300 13223.5376
57.7400 12643.2040
57.7500 12628.6694
57.7600 12206.9214
57.7700 11513.2154
57.7800 11105.6194
57.7900 10955.4786
57.8000 10979.8324
57.8100 10665.4410
57.8200 9947.6734
57.8300 9599.0332
57.8400 9484.4230
57.8500 9450.3670
57.8600 8978.3894
57.8700 8817.9110
57.8800 8535.7642
57.8900 8425.6136
57.9000 8676.4258
57.9100 8771.4550
57.9200 8494.9552
57.9300 8420.6152
57.9400 8409.1740
57.9500 8356.8376
57.9600 8566.1264
57.9700 8407.5732
57.9800 7883.0590
57.9900 7951.0180
58.0000 7948.9372
58.0100 7377.6546
58.0200 7628.5490
58.0300 7793.9926
58.0400 7715.3370
58.0500 7633.3358
58.0600 7779.0902
58.0700 7622.2460
58.0800 7854.9366
58.0900 7274.4620
58.1000 7690.9506
58.1100 7533.0672
58.1200 7370.7438
58.1300 7772.2868
58.1400 7537.4112
58.1500 7776.1612
58.1600 7193.1656
58.1700 7030.4500
58.1800 7363.2870
58.1900 7472.7922
58.2000 7457.4984
58.2100 7282.9070
58.2200 7630.2328
58.2300 7472.0312
58.2400 7462.8882
58.2500 7200.5948
58.2600 6968.5816
58.2700 7027.8834
58.2800 7385.4866
58.2900 7093.5206
58.3000 7414.4882
58.3100 7400.4386
58.3200 7297.5416
58.3300 7679.2806
58.3400 7213.2870
58.3500 7265.9456
58.3600 7443.1420
58.3700 7322.2778
58.3800 7222.5000
58.3900 7005.2800
58.4000 7116.9808
58.4100 7362.2356
58.4200 7189.4638
58.4300 7488.2048
58.4400 7273.5994
58.4500 7550.9278
58.4600 7251.7374
58.4700 7209.1756
58.4800 7210.4444
58.4900 7217.7994
58.5000 7450.5452
58.5100 7151.3680
58.5200 7334.7786
58.5300 7180.0814
58.5400 7134.0536
58.5500 7196.4608
58.5600 6995.4874
58.5700 7199.8324
58.5800 7522.4308
58.5900 7084.6062
58.6000 7554.3408
58.6100 7275.2320
58.6200 6981.5812
58.6300 7226.6944
58.6400 7078.1088
58.6500 7205.0374
58.6600 7321.9140
58.6700 7507.8028
58.6800 7185.5184
58.6900 7055.3272
58.7000 6917.8174
58.7100 7061.7830
58.7200 7380.2116
58.7300 7299.5646
58.7400 7408.4668
58.7500 7484.4694
58.7600 6961.3998
58.7700 7115.1254
58.7800 7358.9804
58.7900 6906.6260
58.8000 7108.0388
58.8100 6997.5106
58.8200 7284.2188
58.8300 7471.7774
58.8400 7008.6150
58.8500 6983.5400
58.8600 7543.4628
58.8700 7337.5912
58.8800 6745.9484
58.8900 7471.1410
58.9000 7078.6710
58.9100 7202.5782
58.9200 7201.3518
58.9300 6969.7990
58.9400 7222.3316
58.9500 7033.4514
58.9600 7045.8602
58.9700 6942.2428
58.9800 6956.2174
58.9900 7238.5596
59.0000 7285.4296
59.0100 7348.1136
59.0200 7017.2144
59.0300 7066.2768
59.0400 6921.8798
59.0500 6910.3516
59.0600 7024.1552
59.0700 7129.9040
59.0800 7297.2624
59.0900 7368.1552
59.1000 7056.1736
59.1100 7281.2556
59.1200 7209.1284
59.1300 7344.3880
59.1400 7121.1100
59.1500 6845.2848
59.1600 7131.4226
59.1700 7191.8938
59.1800 6517.1452
59.1900 6845.7666
59.2000 7112.4112
59.2100 7093.6426
59.2200 7126.4990
59.2300 6927.5896
59.2400 7111.5364
59.2500 7118.7712
59.2600 6937.8116
59.2700 7556.8482
59.2800 7279.4874
59.2900 7321.3972
59.3000 7365.3816
59.3100 6943.4164
59.3200 7027.1998
59.3300 7213.9502
59.3400 7280.3728
59.3500 7157.2810
59.3600 7142.1874
59.3700 7262.5074
59.3800 7347.0288
59.3900 7140.9220
59.4000 6690.8590
59.4100 7106.2802
59.4200 7015.7316
59.4300 7025.5330
59.4400 7456.4568
59.4500 6936.0474
59.4600 7314.3058
59.4700 6975.8944
59.4800 7135.4322
59.4900 7355.1140
59.5000 7004.0380
59.5100 6871.3972
59.5200 6854.7722
59.5300 6788.4306
59.5400 6926.0792
59.5500 6861.5470
59.5600 6809.0384
59.5700 7270.7024
59.5800 7277.8598
59.5900 7048.9600
59.6000 7109.7152
59.6100 7005.3598
59.6200 6997.3600
59.6300 6981.4876
59.6400 7006.9490
59.6500 7068.7434
59.6600 6953.5750
59.6700 7158.9250
59.6800 6984.7234
59.6900 7257.6864
59.7000 7215.4932
59.7100 7048.6150
59.7200 7528.0322
59.7300 7534.5468
59.7400 7270.2540
59.7500 6958.6304
59.7600 6809.8918
59.7700 7107.4642
59.7800 7002.6196
59.7900 6739.6196
59.8000 7011.6666
59.8100 7075.2442
59.8200 6955.5932
59.8300 6943.8314
59.8400 7169.8210
59.8500 6904.9560
59.8600 6920.4134
59.8700 7272.0940
59.8800 7122.0476
59.8900 7017.3056
59.9000 7185.7178
59.9100 7321.3062
59.9200 7030.9204
59.9300 7422.9712
59.9400 7268.5116
59.9500 7418.6572
59.9600 7009.9910
59.9700 7393.7118
59.9800 7703.8004
59.9900 7133.2348
60.0000 7344.3872
60.0100 7560.1620
60.0200 7265.3320
60.0300 7178.8704
60.0400 7485.9970
60.0500 7316.8798
60.0600 7558.1070
60.0700 7116.7260
60.0800 7245.4386
60.0900 7356.7400
60.1000 7479.4254
60.1100 7076.3924
60.1200 7088.8436
60.1300 6952.7694
60.1400 7298.1884
60.1500 7494.0844
60.1600 7339.8046
60.1700 7080.2670
60.1800 7268.9038
60.1900 7223.7362
60.2000 6967.4862
60.2100 7246.5398
60.2200 7184.8128
60.2300 6807.9256
60.2400 7233.3366
60.2500 6998.8712
60.2600 7587.7474
60.2700 7498.9242
60.2800 6634.5772
60.2900 7154.4368
60.3000 7238.4374
60.3100 7004.2594
60.3200 7135.7722
60.3300 7075.3728
60.3400 7577.0622
60.3500 7060.5436
60.3600 7478.6630
60.3700 7279.7046
60.3800 7033.6044
60.3900 6878.9804
60.4000 7009.3230
60.4100 6688.2788
60.4200 6651.3806
60.4300 6817.9704
60.4400 7172.8474
60.4500 7142.8442
60.4600 7255.4338
60.4700 7187.0906
60.4800 7009.5158
60.4900 7357.9924
60.5000 7044.2318
60.5100 6998.4848
60.5200 7063.0974
60.5300 7176.2964
60.5400 6837.0996
60.5500 7182.3852
60.5600 7267.4610
60.5700 7064.7338
60.5800 7050.8414
60.5900 7312.2412
60.6000 7214.9122
60.6100 7311.0668
60.6200 7215.5908
60.6300 7041.0514
60.6400 6944.3946
60.6500 7278.1884
60.6600 7246.7944
60.6700 7105.9928
60.6800 7269.2294
60.6900 6838.6174
60.7000 7099.0714
60.7100 7026.6194
60.7200 6958.8940
60.7300 7080.8106
60.7400 6979.7014
60.7500 6957.5016
60.7600 7323.1770
60.7700 6936.3330
60.7800 7262.9916
60.7900 7194.9878
60.8000 6829.8982
60.8100 7176.4836
60.8200 7234.9812
60.8300 6966.4600
60.8400 7277.6676
60.8500 6900.1718
60.8600 7162.4886
60.8700 7060.9668
60.8800 7262.5220
60.8900 7106.0196
60.9000 7315.8854
60.9100 7151.5112
60.9200 7198.8248
60.9300 6973.3634
60.9400 7249.5930
60.9500 7353.2626
60.9600 7264.5100
60.9700 6906.8458
60.9800 7129.6378
60.9900 6953.0802
61.0000 7053.6002
61.0100 6772.5362
61.0200 7201.4152
61.0300 6767.4504
61.0400 7351.2280
61.0500 7037.6464
61.0600 7100.6844
61.0700 7086.4762
61.0800 7308.4766
61.0900 6965.9286
61.1000 7158.7012
61.1100 7358.8282
61.1200 7411.4592
61.1300 6970.2238
61.1400 7180.2678
61.1500 7205.8448
61.1600 7289.5686
61.1700 7430.0334
61.1800 7057.8052
61.1900 6910.8122
61.2000 7084.6956
61.2100 7272.0704
61.2200 7295.0382
61.2300 7005.4688
61.2400 7160.4940
61.2500 6569.8262
61.2600 6893.8484
61.2700 7016.4884
61.2800 6879.7014
61.2900 6846.4404
61.3000 6974.5670
61.3100 6873.0794
61.3200 7076.7074
61.3300 6742.4918
61.3400 7097.1582
61.3500 6990.8122
61.3600 6844.0022
61.3700 7228.8160
61.3800 6715.0366
61.3900 6966.8416
61.4000 7138.9218
61.4100 6998.9274
61.4200 7037.5488
61.4300 6809.3344
61.4400 7088.4612
61.4500 7039.3180
61.4600 7291.3070
61.4700 7141.5738
61.4800 7249.0056
61.4900 7284.2626
61.5000 7190.1538
61.5100 7062.8728
61.5200 7249.3774
61.5300 7273.6874
61.5400 7100.0708
61.5500 6957.5814
61.5600 6939.0804
61.5700 7275.4102
61.5800 7285.6510
61.5900 7056.5870
61.6000 7039.2570
61.6100 7294.0308
61.6200 6963.6344
61.6300 7314.6412
61.6400 7307.3104
61.6500 6878.6972
61.6600 7548.9200
61.6700 7078.5188
61.6800 7049.5110
61.6900 7093.9388
61.7000 7275.4826
61.7100 7019.5418
61.7200 7255.0626
61.7300 6928.9306
61.7400 7150.0724
61.7500 7118.3814
61.7600 7061.8554
61.7700 6876.3378
61.7800 7233.3976
61.7900 7245.4598
61.8000 7186.7700
61.8100 7219.3824
61.8200 6939.5972
61.8300 7219.3848
61.8400 7459.9812
61.8500 7160.1806
61.8600 7113.8900
61.8700 7151.2964
61.8800 7329.8902
61.8900 6948.2788
61.9000 7039.1350
61.9100 6609.9312
61.9200 7024.7558
61.9300 6861.6374
61.9400 7042.3502
61.9500 7063.6508
61.9600 7148.2308
61.9700 6621.8608
61.9800 7380.3988
61.9900 7059.1194
62.0000 6923.2356
62.0100 7300.6990
62.0200 7211.3200
62.0300 6994.9520
62.0400 7063.0330
62.0500 7467.0678
62.0600 7066.0938
62.0700 6988.7346
62.0800 7121.4860
62.0900 7091.1132
62.1000 7611.9750
62.1100 7014.8608
62.1200 7014.0992
62.1300 6821.2032
62.1400 6955.8650
62.1500 7270.4508
62.1600 7385.2116
62.1700 7309.6542
62.1800 7026.0100
62.1900 7289.7762
62.2000 6914.0560
62.2100 6867.8776
62.2200 6765.3862
62.2300 7128.6622
62.2400 7058.8484
62.2500 7333.7020
62.2600 6776.7554
62.2700 7019.2676
62.2800 7048.8176
62.2900 6895.7690
62.3000 7083.5702
62.3100 7000.5266
62.3200 7163.9958
62.3300 7027.6570
62.3400 6895.6690
62.3500 6856.7244
62.3600 6835.7072
62.3700 7087.8044
62.3800 6930.8618
62.3900 7128.7760
62.4000 7432.4854
62.4100 6949.6166
62.4200 7399.1342
62.4300 7041.8530
62.4400 7036.6040
62.4500 6838.1836
62.4600 6996.7042
62.4700 7082.6596
62.4800 6862.1606
62.4900 6898.4448
62.5000 7179.5084
62.5100 6974.9846
62.5200 6975.0406
62.5300 7260.5510
62.5400 7022.8898
62.5500 7201.4836
62.5600 7347.9582
62.5700 7125.8350
62.5800 7106.4038
62.5900 7347.4438
62.6000 7149.3204
62.6100 7195.7194
62.6200 6755.4630
62.6300 6918.9332
62.6400 7174.0568
62.6500 7146.0636
62.6600 7041.9670
62.6700 7164.6648
62.6800 7118.2552
62.6900 7503.9786
62.7000 7040.4558
62.7100 7546.7798
62.7200 7080.8724
62.7300 7083.9942
62.7400 7159.4392
62.7500 7126.7024
62.7600 6964.6712
62.7700 6793.0254
62.7800 7138.6272
62.7900 7065.6698
62.8000 6898.5750
62.8100 6820.5298
62.8200 7333.0476
62.8300 7194.4662
62.8400 7331.5690
62.8500 7060.3850
62.8600 7096.6446
62.8700 6782.4320
62.8800 6954.7802
62.8900 6927.2014
62.9000 7258.7850
62.9100 7275.8976
62.9200 7131.5340
62.9300 7477.6360
62.9400 7416.8530
62.9500 7293.1070
62.9600 7418.8354
62.9700 7167.1492
62.9800 7228.7582
62.9900 6997.8792
63.0000 7009.1552
63.0100 7179.7778
63.0200 6682.7640
63.0300 6953.7304
63.0400 7176.5804
63.0500 7243.5376
63.0600 7027.9256
63.0700 7378.1560
63.0800 7430.2450
63.0900 7304.8064
63.1000 6947.6652
63.1100 7395.3198
63.1200 7505.4240
63.1300 7535.1652
63.1400 7302.6986
63.1500 7207.6384
63.1600 7500.7748
63.1700 6956.2028
63.1800 6831.5316
63.1900 7263.3186
63.2000 7077.2046
63.2100 7004.3864
63.2200 6638.0872
63.2300 7048.8510
63.2400 7205.8326
63.2500 6767.1456
63.2600 7559.9316
63.2700 7419.5784
63.2800 7229.4052
63.2900 7152.3046
63.3000 7320.5046
63.3100 7435.4314
63.3200 6987.6660
63.3300 6851.2094
63.3400 6977.2396
63.3500 6866.0970
63.3600 7253.0558
63.3700 7176.0888
63.3800 7361.7732
63.3900 7130.1212
63.4000 6983.4350
63.4100 7047.4324
63.4200 7344.3840
63.4300 6780.9302
63.4400 7137.9654
63.4500 6999.0764
63.4600 7269.0178
63.4700 7249.9512
63.4800 7112.3242
63.4900 6928.6954
63.5000 7180.0992
63.5100 7110.6128
63.5200 6936.5926
63.5300 7099.7144
63.5400 7373.8362
63.5500 7216.8262
63.5600 7123.4814
63.5700 6834.8974
63.5800 7202.8288
63.5900 7300.8040
63.6000 6863.5750
63.6100 7025.2548
63.6200 7037.6742
63.6300 7196.0840
63.6400 7041.6438
63.6500 7212.0922
63.6600 7704.6306
63.6700 7096.0344
63.6800 7424.5044
63.6900 6930.5624
63.7000 7327.8426
63.7100 7244.6884
63.7200 7174.6664
63.7300 7622.7084
63.7400 7351.6374
63.7500 7062.7848
63.7600 6967.3990
63.7700 7286.4340
63.7800 7187.2640
63.7900 7101.8962
63.8000 7496.5764
63.8100 7374.2538
63.8200 7057.1102
63.8300 7077.4756
63.8400 7432.6652
63.8500 7255.1636
63.8600 7048.0404
63.8700 6855.2426
63.8800 7343.7296
63.8900 6738.8400
63.9000 7033.6752
63.9100 6986.9042
63.9200 7496.1132
63.9300 7359.4174
63.9400 7004.2024
63.9500 6893.5710
63.9600 6963.9576
63.9700 7103.2398
63.9800 6959.2244
63.9900 6788.1100
64.0000 7057.0468
64.0100 7184.6736
64.0200 7193.3414
64.0300 7103.6874
64.0400 6903.4814
64.0500 6969.9952
64.0600 6835.2198
64.0700 7076.4078
64.0800 6909.8006
64.0900 7241.2662
64.1000 7051.4250
64.1100 7113.9208
64.1200 7133.7988
64.1300 7279.4328
64.1400 7028.2146
64.1500 6996.8588
64.1600 7201.6528
64.1700 6910.5086
64.1800 7005.0888
64.1900 7286.5608
64.2000 7175.8162
64.2100 7454.5590
64.2200 7287.9248
64.2300 7561.2776
64.2400 7280.4338
64.2500 7299.7404
64.2600 7230.2726
64.2700 7304.4938
64.2800 7038.5092
64.2900 7124.9862
64.3000 7016.4836
64.3100 6951.3656
64.3200 7068.8802
64.3300 7241.1816
64.3400 7229.7208
64.3500 7003.8452
64.3600 7018.2478
64.3700 7058.5962
64.3800 7010.0398
64.3900 6790.9232
64.4000 6898.5222
64.4100 7107.5554
64.4200 7148.9754
64.4300 7300.6168
64.4400 7263.0624
64.4500 7059.1464
64.4600 6828.6352
64.4700 7118.1454
64.4800 7435.8814
64.4900 7094.3612
64.5000 7159.8942
64.5100 6793.3186
64.5200 6964.1870
64.5300 7103.0396
64.5400 7132.1542
64.5500 7280.9628
64.5600 7073.2178
64.5700 6807.1586
64.5800 7110.3410
64.5900 7735.9896
64.6000 7552.6156
64.6100 7320.8178
64.6200 7471.6910
64.6300 6976.9848
64.6400 6778.4350
64.6500 6878.1104
64.6600 7208.5644
64.6700 7132.8076
64.6800 7205.2466
64.6900 7080.0056
64.7000 6861.4404
64.7100 6923.6296
64.7200 7605.3678
64.7300 6990.4566
64.7400 6589.6798
64.7500 6894.0104
64.7600 7163.1714
64.7700 7141.0994
64.7800 6973.3350
64.7900 6988.1258
64.8000 7213.4594
64.8100 7377.5024
64.8200 7233.0672
64.8300 7116.2996
64.8400 7065.6706
64.8500 7334.9032
64.8600 7511.1792
64.8700 6841.0522
64.8800 7086.5576
64.8900 7149.0056
64.9000 7312.6986
64.9100 7170.0538
64.9200 7300.9074
64.9300 7310.8204
64.9400 7084.6476
64.9500 7629.1544
64.9600 7250.2050
64.9700 7122.9802
64.9800 7146.7854
64.9900 6921.2492
65.0000 7437.8166
65.0100 7005.7382
65.0200 7152.1004
65.0300 6954.8502
65.0400 7152.6074
65.0500 6942.6204
65.0600 7368.6670
65.0700 7136.0530
65.0800 6696.4652
65.0900 7091.4518
65.1000 7200.4542
65.1100 7104.0870
65.1200 7236.0442
65.1300 7339.6484
65.1400 6662.3210
65.1500 7082.8272
65.1600 7177.1712
65.1700 6948.1438
65.1800 7245.8790
65.1900 7129.5328
65.2000 6963.2398
65.2100 7012.9492
65.2200 7152.4804
65.2300 7046.4290
65.2400 6950.5338
65.2500 7141.9864
65.2600 7233.8640
65.2700 7272.6936
65.2800 6997.3218
65.2900 6789.2618
65.3000 6833.4204
65.3100 7538.5702
65.3200 7475.5908
65.3300 7402.2242
65.3400 7075.8984
65.3500 7179.6134
65.3600 6968.3854
65.3700 7144.6126
65.3800 7274.9870
65.3900 7144.1642
65.4000 7016.9930
65.4100 6921.9718
65.4200 7214.0714
65.4300 7437.2282
65.4400 6932.7898
65.4500 7343.0852
65.4600 7115.3386
65.4700 7457.6090
65.4800 7257.6262
65.4900 7162.2950
65.5000 7229.1244
65.5100 7310.4972
65.5200 7033.5588
65.5300 7305.0968
65.5400 7232.2200
65.5500 7249.1512
65.5600 7114.8714
65.5700 7274.3816
65.5800 7357.6270
65.5900 7179.1292
65.6000 6959.3912
65.6100 7445.0488
65.6200 7357.6464
65.6300 7042.8142
65.6400 6733.9152
65.6500 7194.2302
65.6600 7420.4582
65.6700 7608.1656
65.6800 7485.8894
65.6900 7143.9340
65.7000 7022.5968
65.7100 7502.7898
65.7200 7003.9428
65.7300 7118.5490
65.7400 7157.7206
65.7500 7285.0170
65.7600 7262.6148
65.7700 7397.0622
65.7800 7149.9732
65.7900 7190.7854
65.8000 6691.5190
65.8100 7101.2198
65.8200 7480.5794
65.8300 7557.3982
65.8400 7271.1132
65.8500 7106.9434
65.8600 7064.9374
65.8700 7095.3572
65.8800 7491.5552
65.8900 7214.5630
65.9000 7066.6122
65.9100 7020.9782
65.9200 7261.9954
65.9300 7177.8328
65.9400 6950.0546
65.9500 7008.0494
65.9600 7064.1536
65.9700 7030.2408
65.9800 7192.7556
65.9900 6983.7842
66.0000 7621.1710
66.0100 7363.5718
66.0200 7087.2014
66.0300 7141.3240
66.0400 7332.9956
66.0500 7357.8646
66.0600 6926.7838
66.0700 7324.4182
66.0800 7496.6350
66.0900 7498.1282
66.1000 7250.3198
66.1100 7103.1876
66.1200 7475.2954
66.1300 7030.1668
66.1400 7262.8858
66.1500 7090.2506
66.1600 6916.2850
66.1700 7032.0516
66.1800 7339.4368
66.1900 7277.0492
66.2000 6982.5626
66.2100 7516.7106
66.2200 7420.5232
66.2300 6697.9960
66.2400 6826.2202
66.2500 6923.8452
66.2600 7243.6246
66.2700 7185.7454
66.2800 6930.1360
66.2900 7341.1768
66.3000 7003.6556
66.3100 7356.2484
66.3200 7254.6542
66.3300 7154.2286
66.3400 7339.4898
66.3500 7770.4646
66.3600 7230.3344
66.3700 7850.3702
66.3800 7218.7076
66.3900 7237.1590
66.4000 7112.2786
66.4100 7433.5824
66.4200 6975.6560
66.4300 7214.6298
66.4400 7136.3070
66.4500 7237.1810
66.4600 7366.5414
66.4700 7267.6376
66.4800 7652.6636
66.4900 7238.0810
66.5000 7604.4140
66.5100 7338.0932
66.5200 7086.4014
66.5300 7461.3362
66.5400 7101.5324
66.5500 6931.2434
66.5600 7043.0266
66.5700 7195.4094
66.5800 7169.5500
66.5900 7212.6368
66.6000 7295.8358
66.6100 7426.4950
66.6200 7598.9550
66.6300 7145.7128
66.6400 7525.4760
66.6500 7261.7318
66.6600 7418.3122
66.6700 7336.4722
66.6800 7585.4850
66.6900 7569.2968
66.7000 7606.9792
66.7100 7237.9680
66.7200 7132.9606
66.7300 7456.5446
66.7400 7471.2468
66.7500 7107.0516
66.7600 7530.6226
66.7700 7290.3466
66.7800 7514.3904
66.7900 7413.4236
66.8000 7150.7576
66.8100 7851.0206
66.8200 7283.2006
66.8300 7393.0640
66.8400 7659.7128
66.8500 7516.7920
66.8600 7537.2844
66.8700 7699.8430
66.8800 7610.5224
66.8900 7982.7190
66.9000 8054.8974
66.9100 8064.6850
66.9200 7772.0556
66.9300 7955.1090
66.9400 8156.7896
66.9500 8097.0858
66.9600 8242.3356
66.9700 7912.9948
66.9800 8102.7766
66.9900 7872.3812
67.0000 8100.0472
67.0100 8025.6632
67.0200 8270.2490
67.0300 8007.3006
67.0400 8345.5566
67.0500 8251.1702
67.0600 8735.4866
67.0700 8588.7190
67.0800 8094.5214
67.0900 8129.0616
67.1000 8416.9442
67.1100 8973.8534
67.1200 8852.8174
67.1300 8774.0528
67.1400 8970.5746
67.1500 8899.1626
67.1600 9227.2868
67.1700 9128.2422
67.1800 9984.6752
67.1900 10026.8628
67.2000 9721.2932
67.2100 9613.4676
67.2200 10198.2934
67.2300 10664.5728
67.2400 10062.2200
67.2500 10325.6600
67.2600 10762.0914
67.2700 11141.1980
67.2800 11364.1682
67.2900 11499.9634
67.3000 11581.7944
67.3100 11890.3150
67.3200 12309.0642
67.3300 12412.1630
67.3400 12187.2216
67.3500 12888.4994
67.3600 12805.8008
67.3700 13753.1088
67.3800 13297.4894
67.3900 14222.7050
67.4000 13897.2168
67.4100 13403.5546
67.4200 14381.8360
67.4300 14932.3666
67.4400 14600.9734
67.4500 14448.0062
67.4600 14297.3422
67.4700 15217.2086
67.4800 14837.9720
67.4900 15050.6478
67.5000 14964.3684
67.5100 15444.4532
67.5200 14960.6054
67.5300 14799.8616
67.5400 14981.6666
67.5500 14902.6530
67.5600 15320.7390
67.5700 15516.1654
67.5800 15292.0590
67.5900 15451.3786
67.6000 14980.1726
67.6100 14026.3248
67.6200 14443.7744
67.6300 14940.9440
67.6400 14169.9984
67.6500 14229.3246
67.6600 13693.0534
67.6700 13492.0272
67.6800 13717.5406
67.6900 13718.2146
67.7000 13174.6786
67.7100 12907.6140
67.7200 12950.6666
67.7300 12568.4008
67.7400 11614.5598
67.7500 11591.4250
67.7600 11505.7454
67.7700 11710.7138
67.7800 10982.1664
67.7900 11266.8554
67.8000 10788.7084
67.8100 10510.5070
67.8200 10110.0748
67.8300 9996.2728
67.8400 9931.9002
67.8500 9772.0508
67.8600 9809.0486
67.8700 9505.7576
67.8800 9553.9908
67.8900 9215.2214
67.9000 9207.0402
67.9100 8664.7592
67.9200 8805.3784
67.9300 8995.9724
67.9400 8803.5596
67.9500 8414.6892
67.9600 8482.3022
67.9700 8210.4280
67.9800 8229.3604
67.9900 7925.4720
68.0000 8305.8756
68.0100 7998.8534
68.0200 7742.3544
68.0300 8146.8522
68.0400 7976.9946
68.0500 7851.9670
68.0600 7818.6686
68.0700 7555.5306
68.0800 7595.6616
68.0900 7780.5738
68.1000 7872.8206
68.1100 7784.5256
68.1200 7553.5620
68.1300 7766.8522
68.1400 8084.2790
68.1500 7429.1228
68.1600 7614.4392
68.1700 7520.4118
68.1800 7294.3326
68.1900 7204.4498
68.2000 7618.9380
68.2100 7188.8510
68.2200 7484.1984
68.2300 7725.5550
68.2400 7485.7592
68.2500 7265.0106
68.2600 7359.1016
68.2700 7617.1142
68.2800 7571.6984
68.2900 7505.9960
68.3000 7513.6466
68.3100 7396.9628
68.3200 7520.4760
68.3300 7417.5652
68.3400 7475.5818
68.3500 7905.2002
68.3600 7688.0852
68.3700 7371.2330
68.3800 7391.7994
68.3900 7596.3510
68.4000 7383.4082
68.4100 7265.8862
68.4200 7244.2692
68.4300 7464.7730
68.4400 7523.2796
68.4500 7630.5648
68.4600 7231.8082
68.4700 7647.4838
68.4800 7618.2504
68.4900 7451.6528
68.5000 7247.8736
68.5100 7379.3124
68.5200 7117.3144
68.5300 7467.2584
68.5400 7135.3898
68.5500 7455.4744
68.5600 7043.1690
68.5700 7301.3290
68.5800 7202.6856
68.5900 7411.3192
68.6000 7508.5140
68.6100 7354.0372
68.6200 7156.7172
68.6300 7514.1406
68.6400 7373.8982
68.6500 7029.0624
68.6600 7427.4724
68.6700 7350.9472
68.6800 7051.4006
68.6900 7198.4164
68.7000 7573.5100
68.7100 7201.7448
68.7200 7492.5660
68.7300 7184.1252
68.7400 7267.6562
68.7500 7035.6942
68.7600 7316.6928
68.7700 7206.4738
68.7800 7548.4384
68.7900 7106.1972
68.8000 7670.3508
68.8100 7473.0094
68.8200 7373.7288
68.8300 7081.5446
68.8400 6797.4992
68.8500 7083.6890
68.8600 7606.6928
68.8700 7194.8738
68.8800 7362.6660
68.8900 7119.8454
68.9000 7096.8684
68.9100 7152.4626
68.9200 7192.5512
68.9300 7101.5820
68.9400 6854.0014
68.9500 6963.5050
68.9600 7084.9324
68.9700 6904.4182
68.9800 6931.6740
68.9900 7244.0600
69.0000 7140.1912
69.0100 7228.8746
69.0200 7077.2112
69.0300 7483.6190
69.0400 7228.5180
69.0500 7112.9850
69.0600 7010.7348
69.0700 7636.0108
69.0800 7132.2510
69.0900 7253.2528
69.1000 6987.9070
69.1100 7248.8810
69.1200 7099.0250
69.1300 6804.7132
69.1400 7306.2516
69.1500 7424.7680
69.1600 7095.5362
69.1700 7145.0302
69.1800 7214.1602
69.1900 7454.5948
69.2000 6978.4188
69.2100 7114.7306
69.2200 7095.6502
69.2300 6703.8982
69.2400 6752.3308
69.2500 6933.1592
69.2600 7095.4638
69.2700 6902.3780
69.2800 7010.4882
69.2900 7337.6994
69.3000 7195.2344
69.3100 7084.3474
69.3200 7291.3468
69.3300 7281.6806
69.3400 7356.1662
69.3500 7039.2464
69.3600 7435.4972
69.3700 7426.6544
69.3800 7110.8984
69.3900 7527.7750
69.4000 7159.9708
69.4100 7064.9252
69.4200 7051.5080
69.4300 6870.9236
69.4400 6933.1184
69.4500 6874.3986
69.4600 7158.8110
69.4700 6940.0114
69.4800 7529.9406
69.4900 7145.0472
69.5000 6921.7286
69.5100 6597.4702
69.5200 7235.4680
69.5300 7159.9496
69.5400 7024.5956
69.5500 7110.1124
69.5600 7199.1830
69.5700 7469.4490
69.5800 6996.2630
69.5900 7350.3336
69.6000 7247.8028
69.6100 7546.6228
69.6200 7548.4270
69.6300 6809.0288
69.6400 6902.1354
69.6500 7021.2996
69.6600 7354.0162
69.6700 7271.1906
69.6800 7270.2824
69.6900 7113.3724
69.7000 6960.1124
69.7100 7440.4924
69.7200 7360.7836
69.7300 7286.9604
69.7400 7048.6938
69.7500 7261.7196
69.7600 7306.8930
69.7700 7412.7702
69.7800 7222.8784
69.7900 7154.8706
69.8000 7075.8716
69.8100 7179.6728
69.8200 7122.0622
69.8300 7199.9894
69.8400 7031.2574
69.8500 7111.7602
69.8600 7289.9820
69.8700 7130.4606
69.8800 7001.0132
69.8900 7075.0782
69.9000 7241.0816
69.9100 7310.6918
69.9200 7567.4576
69.9300 7088.6752
69.9400 6835.3598
69.9500 7096.6456
69.9600 7161.3240
69.9700 7064.6998
69.9800 7263.6214
69.9900 7287.2868
70.0000 7154.4882
70.0100 7169.9674
70.0200 7017.3990
70.0300 7221.9296
70.0400 7015.9724
70.0500 7035.5982
70.0600 7459.3806
70.0700 6843.9266
70.0800 6926.1776
70.0900 7171.8074
70.1000 7190.3670
70.1100 7349.1910
70.1200 7155.0358
70.1300 7777.9012
70.1400 7343.9852
70.1500 7137.4096
70.1600 7192.6090
70.1700 7090.2792
70.1800 7233.8168
70.1900 7206.5926
70.2000 7166.9856
70.2100 7410.4296
70.2200 7219.8868
70.2300 7092.6644
70.2400 7350.3564
70.2500 7336.3632
70.2600 7185.9668
70.2700 7432.0450
70.2800 7491.9580
70.2900 7405.0326
70.3000 7175.4890
70.3100 7352.3080
70.3200 7148.3154
70.3300 7239.5606
70.3400 7220.9708
70.3500 7017.0354
70.3600 6823.3402
70.3700 7162.5366
70.3800 7007.3064
70.3900 7474.4100
70.4000 7219.6436
70.4100 7148.6474
70.4200 7032.6904
70.4300 7180.0082
70.4400 7193.0192
70.4500 7132.2706
70.4600 6951.0938
70.4700 6756.3578
70.4800 7149.7208
70.4900 7003.5328
70.5000 7132.7758
70.5100 7271.8302
70.5200 7626.6748
70.5300 7798.8176
70.5400 7338.6604
70.5500 7285.3964
70.5600 7083.1778
70.5700 7059.8616
70.5800 7105.5958
70.5900 7101.1304
70.6000 7191.3868
70.6100 6914.5150
70.6200 7068.5758
70.6300 6862.9696
70.6400 7266.8002
70.6500 7294.1130
70.6600 7333.8720
70.6700 7615.6324
70.6800 7448.5188
70.6900 7359.5654
70.7000 6926.6324
70.7100 6947.5212
70.7200 6944.4506
70.7300 6990.2116
70.7400 6929.7070
70.7500 6871.1800
70.7600 7030.9114
70.7700 7287.8548
70.7800 6884.4514
70.7900 6903.8728
70.8000 6860.3784
70.8100 6956.6528
70.8200 7295.8390
70.8300 7509.2416
70.8400 7077.3332
70.8500 6995.5974
70.8600 7014.2920
70.8700 7103.8346
70.8800 7162.0468
70.8900 7121.6244
70.9000 7348.7084
70.9100 7593.3936
70.9200 7035.0546
70.9300 7104.6118
70.9400 6898.0884
70.9500 6918.6328
70.9600 7038.1868
70.9700 6978.0046
70.9800 7170.7618
70.9900 7172.4154
71.0000 7356.1028
71.0100 7217.2144
71.0200 7201.9816
71.0300 7331.4510
71.0400 7276.6796
71.0500 7609.0128
71.0600 7254.8396
71.0700 7179.8056
71.0800 6934.3588
71.0900 7154.7820
71.1000 7192.0598
71.1100 7227.6700
71.1200 7226.2142
71.1300 7382.7750
71.1400 7404.9788
71.1500 7234.4222
71.1600 7625.1270
71.1700 6685.0138
71.1800 7097.6448
71.1900 7021.5144
71.2000 7560.1554
71.2100 7260.8814
71.2200 7343.8566
71.2300 7237.7962
71.2400 7602.0256
71.2500 7428.9998
71.2600 7031.2680
71.2700 6664.2972
71.2800 7045.5648
71.2900 7146.3134
71.3000 7184.2424
71.3100 6839.9162
71.3200 7233.6490
71.3300 6939.2228
71.3400 7336.1264
71.3500 7241.3240
71.3600 7442.5220
71.3700 7473.1698
71.3800 7346.0084
71.3900 6718.1644
71.4000 6885.6356
71.4100 7205.2450
71.4200 7209.1878
71.4300 7151.2216
71.4400 7411.0100
71.4500 7620.8626
71.4600 7128.6166
71.4700 7020.3572
71.4800 7141.6472
71.4900 6979.5930
71.5000 7522.5342
71.5100 7490.1432
71.5200 7117.0996
71.5300 7275.9106
71.5400 7161.6708
71.5500 7183.8850
71.5600 6968.3594
71.5700 7394.2976
71.5800 7560.7398
71.5900 7045.5314
71.6000 7034.1202
71.6100 7145.6624
71.6200 7407.8524
71.6300 7209.4718
71.6400 7101.3746
71.6500 7412.4992
71.6600 7240.4834
71.6700 6903.1144
71.6800 6962.8296
71.6900 7256.1816
71.7000 7224.0698
71.7100 6993.1364
71.7200 7440.2304
71.7300 7551.6610
71.7400 7192.1866
71.7500 6986.0466
71.7600 7159.0112
71.7700 7271.2842
71.7800 7567.4886
71.7900 7247.2828
71.8000 7320.6242
71.8100 7327.7026
71.8200 7263.0916
71.8300 7125.0764
71.8400 7603.7028
71.8500 7479.2676
71.8600 7264.5540
71.8700 7472.8002
71.8800 7234.8616
71.8900 7244.0462
71.9000 7488.5572
71.9100 7180.4630
71.9200 7161.4852
71.9300 7740.6144
71.9400 7391.4014
71.9500 7494.1024
71.9600 7441.8188
71.9700 7665.0066
71.9800 7421.0962
71.9900 7091.3632
72.0000 7192.7556
72.0100 7572.1070
72.0200 7171.9010
72.0300 7502.0110
72.0400 7353.8802
72.0500 7615.8472
72.0600 7463.4856
72.0700 7683.2968
72.0800 7451.9320
72.0900 7176.8262
72.1000 7671.6968
72.1100 7354.4986
72.1200 7596.2898
72.1300 7782.3528
72.1400 7389.3108
72.1500 7454.9324
72.1600 7273.3772
72.1700 7428.5206
72.1800 7137.7506
72.1900 7897.6164
72.2000 7639.9496
72.2100 7573.1202
72.2200 7607.4512
72.2300 7739.5418
72.2400 7525.2050
72.2500 7289.4100
72.2600 7423.0982
72.2700 7654.9504
72.2800 7809.1366
72.2900 7668.1184
72.3000 7443.7044
72.3100 7641.4160
72.3200 7817.1696
72.3300 7932.8744
72.3400 7547.6604
72.3500 7613.0274
72.3600 7792.4130
72.3700 7778.6328
72.3800 7754.2000
72.3900 7692.7758
72.4000 7459.1512
72.4100 7783.4612
72.4200 7579.2496
72.4300 7523.2032
72.4400 7499.0096
72.4500 7511.5634
72.4600 7103.0762
72.4700 7427.0256
72.4800 7367.0158
72.4900 7536.0904
72.5000 7655.8114
72.5100 7226.2434
72.5200 7307.0980
72.5300 7399.5964
72.5400 7604.1016
72.5500 7337.9232
72.5600 7483.4082
72.5700 7837.5016
72.5800 7527.3738
72.5900 7448.5792
72.6000 7488.9404
72.6100 7460.0984
72.6200 7247.6872
72.6300 7332.2168
72.6400 7281.4120
72.6500 7212.1940
72.6600 7477.9166
72.6700 7443.2486
72.6800 7283.7346
72.6900 7190.7592
72.7000 7404.2310
72.7100 7397.5732
72.7200 7477.9850
72.7300 7302.7344
72.7400 7423.4034
72.7500 7255.1514
72.7600 7632.3454
72.7700 7583.7508
72.7800 7492.6562
72.7900 7205.8228
72.8000 7230.8838
72.8100 7262.7068
72.8200 7356.8710
72.8300 7303.5938
72.8400 7379.7290
72.8500 7268.7574
72.8600 7772.6034
72.8700 7536.6040
72.8800 7350.0106
72.8900 7276.8140
72.9000 7442.6652
72.9100 7154.3164
72.9200 7346.6276
72.9300 7312.2990
72.9400 7234.3246
72.9500 7338.0232
72.9600 7415.3938
72.9700 7319.3538
72.9800 7351.8970
72.9900 7293.9738
73.0000 6970.8976
73.0100 6884.1430
73.0200 7118.4130
73.0300 7403.4530
73.0400 7655.4900
73.0500 7205.1848
73.0600 7354.7290
73.0700 7294.7444
73.0800 6867.0182
73.0900 6858.0770
73.1000 7085.8920
73.1100 7163.4716
73.1200 7160.4940
73.1300 7188.5750
73.1400 6774.7604
73.1500 6806.8412
73.1600 7240.4444
73.1700 6783.0110
73.1800 7156.7846
73.1900 7263.6418
73.2000 7254.2888
73.2100 6974.3408
73.2200 7301.7122
73.2300 6914.6134
73.2400 7111.5356
73.2500 7216.5836
73.2600 6911.5316
73.2700 7303.9892
73.2800 6936.8920
73.2900 6922.8556
73.3000 6623.6588
73.3100 6895.5558
73.3200 7521.1028
73.3300 7144.1692
73.3400 7235.9008
73.3500 7412.0956
73.3600 7445.3280
73.3700 7311.0514
73.3800 6842.8012
73.3900 6555.7890
73.4000 6987.0662
73.4100 7299.9252
73.4200 6998.8826
73.4300 7138.9428
73.4400 7197.8386
73.4500 7153.4440
73.4600 7182.8606
73.4700 7253.2958
73.4800 7665.7056
73.4900 7068.8004
73.5000 7416.8408
73.5100 7232.6132
73.5200 7616.6936
73.5300 7193.7556
73.5400 7153.7232
73.5500 6854.9454
73.5600 7113.7768
73.5700 7000.1872
73.5800 7062.6098
73.5900 7439.5834
73.6000 7227.6000
73.6100 7269.8764
73.6200 7044.1626
73.6300 6920.8040
73.6400 7177.4178
73.6500 7097.2982
73.6600 6979.7444
73.6700 6916.4804
73.6800 6976.5616
73.6900 7234.0788
73.7000 7339.0276
73.7100 7530.5810
73.7200 7044.7566
73.7300 7304.3742
73.7400 7287.9142
73.7500 6870.3906
73.7600 7054.9276
73.7700 6832.5814
73.7800 7170.3670
73.7900 7386.3640
73.8000 6957.2566
73.8100 7075.7828
73.8200 7161.5112
73.8300 7025.9798
73.8400 7117.7320
73.8500 6927.7612
73.8600 6948.8282
73.8700 7245.7958
73.8800 7516.4454
73.8900 7191.4258
73.9000 7123.7712
73.9100 7398.1966
73.9200 7223.5246
73.9300 7100.5126
73.9400 6907.5390
73.9500 7179.5060
73.9600 7160.4630
73.9700 7189.0048
73.9800 7470.3834
73.9900 7557.5684
74.0000 7112.0662
74.0100 7327.4000
74.0200 6993.5010
74.0300 7053.5792
74.0400 7197.8564
74.0500 7272.7872
74.0600 6788.6316
74.0700 7083.5084
74.0800 7332.7018
74.0900 7417.9394
74.1000 7109.2578
74.1100 7244.6810
74.1200 7459.1700
74.1300 7267.2932
74.1400 7395.3638
74.1500 7420.2938
74.1600 7078.6336
74.1700 6996.3574
74.1800 7089.4352
74.1900 6957.4552
74.2000 6886.3802
74.2100 7490.1668
74.2200 7526.8368
74.2300 7076.8694
74.2400 7068.1136
74.2500 7351.2320
74.2600 7206.6544
74.2700 7132.6718
74.2800 7159.7754
74.2900 6908.5612
74.3000 7310.6796
74.3100 7322.2680
74.3200 7256.8132
74.3300 7275.4174
74.3400 7165.3988
74.3500 7425.6274
74.3600 7418.5368
74.3700 6620.0024
74.3800 6772.0468
74.3900 7460.8406
74.4000 6855.5396
74.4100 6982.0882
74.4200 7460.9416
74.4300 7502.5634
74.4400 6889.5232
74.4500 7176.3834
74.4600 7158.5514
74.4700 7252.4226
74.4800 7269.8552
74.4900 7270.8406
74.5000 7588.7320
74.5100 7528.3838
74.5200 7138.9876
74.5300 7296.4428
74.5400 7514.3962
74.5500 7032.9574
74.5600 7307.2086
74.5700 7259.3196
74.5800 7315.9188
74.5900 7411.8466
74.6000 6973.9348
74.6100 7336.9556
74.6200 7159.4760
74.6300 6982.3396
74.6400 6806.3334
74.6500 7103.1666
74.6600 7019.2522
74.6700 7332.3714
74.6800 7170.5266
74.6900 7590.3116
74.7000 7178.5710
74.7100 7051.4290
74.7200 7213.4952
74.7300 7319.2618
74.7400 7298.4050
74.7500 7146.1190
74.7600 7058.6410
74.7700 7323.1690
74.7800 7251.9010
74.7900 7007.8808
74.8000 7485.1700
74.8100 7406.4786
74.8200 7035.2962
74.8300 7102.9956
74.8400 7363.6328
74.8500 7375.0082
74.8600 7043.3390
74.8700 7245.8830
74.8800 6972.0890
74.8900 7183.4114
74.9000 7270.7202
74.9100 7455.2978
74.9200 7318.2642
74.9300 7239.1186
74.9400 7399.7786
74.9500 6839.1316
74.9600 7059.2204
74.9700 7150.0284
74.9800 7020.4582
74.9900 6950.7984
75.0000 7319.8250
75.0100 7102.6204
75.0200 7166.6536
75.0300 6811.3184
75.0400 7196.4550
75.0500 7018.5872
75.0600 7012.1176
75.0700 7120.8602
75.0800 7189.0730
75.0900 6773.1352
75.1000 7125.3500
75.1100 7130.6828
75.1200 7469.8568
75.1300 7536.2280
75.1400 7317.9744
75.1500 7523.0810
75.1600 7395.4980
75.1700 7187.1330
75.1800 7033.4236
75.1900 7518.5678
75.2000 7274.8658
75.2100 7233.6360
75.2200 7411.4436
75.2300 7239.4116
75.2400 7087.8956
75.2500 7324.3676
75.2600 7318.4156
75.2700 7093.5482
75.2800 7151.5210
75.2900 7085.3792
75.3000 7183.6174
75.3100 7059.0022
75.3200 7374.5508
75.3300 6911.2142
75.3400 7421.2736
75.3500 7206.7000
75.3600 7594.9340
75.3700 7616.2834
75.3800 7585.0252
75.3900 7679.0210
75.4000 7346.1938
75.4100 7170.8602
75.4200 7163.8452
75.4300 7482.7580
75.4400 7274.5768
75.4500 7247.1892
75.4600 7266.7774
75.4700 7097.9182
75.4800 7000.2800
75.4900 7625.4102
75.5000 7307.1062
75.5100 7412.1476
75.5200 7353.9706
75.5300 7125.5420
75.5400 7592.0458
75.5500 7358.4074
75.5600 7258.0476
75.5700 7629.9658
75.5800 7236.0612
75.5900 7203.6052
75.6000 7570.2320
75.6100 6995.5770
75.6200 7383.0722
75.6300 7213.4156
75.6400 7434.7664
75.6500 7371.8074
75.6600 7575.9586
75.6700 7254.0584
75.6800 7442.4048
75.6900 6998.4888
75.7000 7528.4432
75.7100 7392.0134
75.7200 7127.9638
75.7300 7401.4926
75.7400 7054.6338
75.7500 7503.9314
75.7600 7394.9340
75.7700 7382.3072
75.7800 7378.4758
75.7900 7349.8926
75.8000 7418.3064
75.8100 7484.3782
75.8200 7125.1302
75.8300 7580.4428
75.8400 7210.4996
75.8500 7178.1372
75.8600 7185.6478
75.8700 8054.5516
75.8800 6970.1278
75.8900 7358.7760
75.9000 7055.3580
75.9100 7268.3838
75.9200 7090.7414
75.9300 7391.5324
75.9400 7606.3134
75.9500 7325.4672
75.9600 7517.0524
75.9700 7633.4602
75.9800 7294.8064
75.9900 7607.6978
76.0000 7442.7026
76.0100 7728.2112
76.0200 7129.2464
76.0300 7301.7740
76.0400 7697.8362
76.0500 7418.6190
76.0600 7577.9606
76.0700 7476.8026
76.0800 7678.0290
76.0900 7377.1582
76.1000 7482.0572
76.1100 7631.6772
76.1200 7416.9532
76.1300 7514.4108
76.1400 7690.8212
76.1500 7541.9198
76.1600 7627.0850
76.1700 7680.1522
76.1800 7733.9908
76.1900 7512.5480
76.2000 7653.2626
76.2100 7269.7306
76.2200 7770.4338
76.2300 7866.7326
76.2400 7984.7494
76.2500 7488.1226
76.2600 8091.5446
76.2700 7770.4598
76.2800 7616.7220
76.2900 7875.5526
76.3000 7660.0252
76.3100 7599.5076
76.3200 8080.9148
76.3300 7646.2280
76.3400 7655.5640
76.3500 8183.5904
76.3600 7558.2390
76.3700 8071.2288
76.3800 8071.6456
76.3900 7902.5904
76.4000 7878.8762
76.4100 8401.4282
76.4200 8486.5446
76.4300 7978.9112
76.4400 8001.6496
76.4500 8381.8758
76.4600 8107.6034
76.4700 8356.5202
76.4800 8575.5704
76.4900 8765.0716
76.5000 8597.1630
76.5100 8766.2810
76.5200 8985.6202
76.5300 8749.9414
76.5400 8784.0162
76.5500 8960.1196
76.5600 9167.9890
76.5700 9373.2576
76.5800 9272.0800
76.5900 8824.6728
76.6000 9569.4750
76.6100 9802.0328
76.6200 9800.8162
76.6300 9778.6516
76.6400 9621.2988
76.6500 10080.3304
76.6600 10215.1692
76.6700 10199.3848
76.6800 10331.4250
76.6900 11067.2192
76.7000 10749.1202
76.7100 10629.8926
76.7200 10833.2536
76.7300 11131.9238
76.7400 11386.2402
76.7500 11386.3152
76.7600 11566.5682
76.7700 11518.9282
76.7800 11676.5120
76.7900 11953.0282
76.8000 11759.1056
76.8100 11828.5556
76.8200 12095.5616
76.8300 12535.3272
76.8400 12326.2198
76.8500 13017.8492
76.8600 12526.1010
76.8700 12632.2770
76.8800 12437.3894
76.8900 12621.4950
76.9000 12781.5674
76.9100 12741.0564
76.9200 12656.4046
76.9300 12635.6820
76.9400 12655.6518
76.9500 12608.0282
76.9600 12777.6164
76.9700 12610.0154
76.9800 12690.8350
76.9900 12536.1490
77.0000 12223.5254
77.0100 12165.4216
77.0200 12303.9420
77.0300 12176.8570
77.0400 12161.9278
77.0500 12567.5416
77.0600 11917.9142
77.0700 11684.6574
77.0800 11906.4470
77.0900 11438.4058
77.1000 11530.0870
77.1100 11100.0366
77.1200 11504.6428
77.1300 11338.1120
77.1400 10834.5744
77.1500 11110.2368
77.1600 10593.8624
77.1700 10077.9622
77.1800 10226.6422
77.1900 10567.4292
77.2000 10504.1976
77.2100 10084.3546
77.2200 10087.7604
77.2300 9581.4876
77.2400 10081.6910
77.2500 9466.7830
77.2600 9369.0836
77.2700 9308.9014
77.2800 9290.0472
77.2900 8972.4626
77.3000 8703.8598
77.3100 8847.1516
77.3200 8752.2892
77.3300 9005.8790
77.3400 8718.7874
77.3500 8456.6146
77.3600 8707.1062
77.3700 8827.7710
77.3800 8662.4358
77.3900 8250.2368
77.4000 8119.3238
77.4100 8127.7336
77.4200 8280.7740
77.4300 8020.6560
77.4400 7776.5194
77.4500 7973.2470
77.4600 7920.7862
77.4700 8266.9288
77.4800 8013.0916
77.4900 7860.1262
77.5000 7710.6770
77.5100 7861.5242
77.5200 7661.3746
77.5300 7454.6298
77.5400 7606.3094
77.5500 7653.2682
77.5600 7675.1456
77.5700 7809.9902
77.5800 8056.9638
77.5900 7824.9000
77.6000 7712.9492
77.6100 7454.8292
77.6200 7681.0458
77.6300 7404.8364
77.6400 7617.4764
77.6500 7907.6204
77.6600 7424.3620
77.6700 7447.9086
77.6800 7619.5280
77.6900 7608.4156
77.7000 7258.6352
77.7100 7465.5738
77.7200 7577.9060
77.7300 7619.6916
77.7400 7462.7156
77.7500 7564.4970
77.7600 7903.7362
77.7700 7621.0628
77.7800 7536.1898
77.7900 7535.7202
77.8000 7266.2850
77.8100 7713.5148
77.8200 7666.6846
77.8300 7623.6622
77.8400 7308.9144
77.8500 7620.6080
77.8600 7035.0472
77.8700 7642.2762
77.8800 7376.5634
77.8900 7362.5504
77.9000 7403.2756
77.9100 7368.3040
77.9200 7591.2444
77.9300 7345.2758
77.9400 7144.9952
77.9500 7348.7670
77.9600 7519.7696
77.9700 7086.3046
77.9800 7313.1958
77.9900 7594.3694
78.0000 7614.0064
78.0100 7143.0022
78.0200 7327.9672
78.0300 7326.5942
78.0400 7289.4100
78.0500 7699.0478
78.0600 7599.5492
78.0700 7507.3064
78.0800 7030.5892
78.0900 7441.6910
78.1000 7159.9210
78.1100 7167.5546
78.1200 7429.2782
78.1300 7202.1370
78.1400 7208.5450
78.1500 7288.4806
78.1600 6977.4934
78.1700 7305.5982
78.1800 7273.0656
78.1900 7394.4174
78.2000 7624.7754
78.2100 7138.7216
78.2200 7530.1604
78.2300 7488.9680
78.2400 7514.3180
78.2500 7537.0882
78.2600 7697.0198
78.2700 6930.7576
78.2800 7386.4444
78.2900 7097.0012
78.3000 6964.9202
78.3100 7106.8864
78.3200 7254.7542
78.3300 7415.0138
78.3400 7307.4820
78.3500 7638.4896
78.3600 7323.5408
78.3700 7230.0602
78.3800 7383.9680
78.3900 7238.8598
78.4000 7490.2914
78.4100 7375.6080
78.4200 7185.7992
78.4300 7476.1980
78.4400 7914.8022
78.4500 7580.4166
78.4600 7049.6468
78.4700 7353.5946
78.4800 6903.0070
78.4900 7272.0312
78.5000 7461.8010
78.5100 7054.2936
78.5200 7266.3444
78.5300 7440.2792
78.5400 7265.4524
78.5500 7477.9452
78.5600 6796.5624
78.5700 7082.7864
78.5800 6973.0330
78.5900 7209.0942
78.6000 7013.7110
78.6100 7377.3348
78.6200 7140.2132
78.6300 7432.3430
78.6400 7229.7486
78.6500 7298.8696
78.6600 7138.1576
78.6700 7119.9594
78.6800 7120.3678
78.6900 6988.4986
78.7000 7351.1572
78.7100 7192.4594
78.7200 7013.1274
78.7300 7391.0792
78.7400 7333.0126
78.7500 7323.3618
78.7600 7303.7476
78.7700 7316.6854
78.7800 7234.3766
78.7900 7194.9072
78.8000 7569.3490
78.8100 7098.7118
78.8200 7126.7522
78.8300 7266.2346
78.8400 7220.5266
78.8500 7137.2030
78.8600 7177.9720
78.8700 7243.5580
78.8800 7414.5598
78.8900 7332.1908
78.9000 7158.8054
78.9100 7341.9662
78.9200 7548.0892
78.9300 7644.6248
78.9400 7371.4698
78.9500 7567.0468
78.9600 6799.5350
78.9700 7083.8948
78.9800 7071.2020
78.9900 7526.3558
79.0000 7164.4670
79.0100 7587.3804
79.0200 6691.2016
79.0300 7072.5024
79.0400 7106.3860
79.0500 7450.7504
79.0600 7503.1552
79.0700 7036.5836
79.0800 7081.6040
79.0900 6985.0154
79.1000 7123.9656
79.1100 7281.0938
79.1200 7331.8066
79.1300 7369.0560
79.1400 7284.8730
79.1500 7480.8920
79.1600 7241.8514
79.1700 7195.8562
79.1800 6868.8428
79.1900 6901.9360
79.2000 7093.8054
79.2100 6869.2716
79.2200 7100.5412
79.2300 6930.7032
79.2400 6983.9656
79.2500 7212.2234
79.2600 7325.4638
79.2700 6996.7896
79.2800 7273.1812
79.2900 7148.3194
79.3000 7065.3572
79.3100 7184.4710
79.3200 7459.7030
79.3300 7334.1260
79.3400 6946.0302
79.3500 7170.7128
79.3600 7122.3502
79.3700 7306.2532
79.3800 7219.9284
79.3900 7492.0442
79.4000 7352.2876
79.4100 7285.9016
79.4200 7156.5162
79.4300 7358.3098
79.4400 7072.7540
79.4500 7130.1440
79.4600 7128.8518
79.4700 7390.8000
79.4800 7256.6154
79.4900 7414.4116
79.5000 7435.3124
79.5100 7598.6198
79.5200 7259.4662
79.5300 7332.3780
79.5400 7161.0344
79.5500 7454.7706
79.5600 7146.6602
79.5700 7581.4322
79.5800 7464.2822
79.5900 7131.7432
79.6000 7326.2646
79.6100 7423.0550
79.6200 7374.5906
79.6300 7639.0926
79.6400 7473.2918
79.6500 7166.4680
79.6600 7343.0982
79.6700 7106.6740
79.6800 7257.6970
79.6900 7053.7956
79.7000 7215.8048
79.7100 7514.0226
79.7200 7236.6796
79.7300 7046.8896
79.7400 7387.3868
79.7500 6988.9926
79.7600 7150.1278
79.7700 7349.8388
79.7800 6694.0658
79.7900 7575.1636
79.8000 7136.7278
79.8100 7220.8122
79.8200 7461.7774
79.8300 7368.6718
79.8400 7332.5000
79.8500 7060.4174
79.8600 7332.6278
79.8700 7356.7814
79.8800 7175.3752
79.8900 7384.1682
79.9000 7258.1608
79.9100 7493.3284
79.9200 6897.5138
79.9300 6785.5220
79.9400 7305.5900
79.9500 7614.0552
79.9600 7445.0708
79.9700 7264.2032
79.9800 7150.3336
79.9900 7433.5450
80.0000 6826.8408
80.0100 7283.0468
80.0200 7167.5920
80.0300 7074.7584
80.0400 7572.0386
80.0500 7529.2522
80.0600 7276.9238
80.0700 7166.0718
80.0800 7497.2844
80.0900 7336.8930
80.1000 7285.2368
80.1100 7455.4810
80.1200 7396.6350
80.1300 7403.4904
80.1400 7016.7578
80.1500 7122.4202
80.1600 7551.0840
80.1700 7320.9130
80.1800 6974.5068
80.1900 7289.4954
80.2000 7488.4262
80.2100 7010.1814
80.2200 7146.8416
80.2300 7334.4402
80.2400 7279.9536
80.2500 7471.0668
80.2600 7713.3342
80.2700 7427.4788
80.2800 7199.0674
80.2900 7347.0458
80.3000 7121.8262
80.3100 7586.1182
80.3200 7271.9466
80.3300 6890.3174
80.3400 7583.9168
80.3500 7217.8736
80.3600 6647.8824
80.3700 7325.2702
80.3800 7700.9734
80.3900 7354.1560
80.4000 7176.9182
80.4100 7213.3554
80.4200 7301.1328
80.4300 7710.9334
80.4400 7029.7802
80.4500 7241.7594
80.4600 7327.6954
80.4700 7309.4816
80.4800 7103.2170
80.4900 7304.8234
80.5000 7336.5250
80.5100 7131.4680
80.5200 7001.3948
80.5300 7343.2032
80.5400 7343.6328
80.5500 7332.4462
80.5600 7535.1132
80.5700 7368.0746
80.5800 7462.0206
80.5900 7279.0226
80.6000 7618.4374
80.6100 7223.8656
80.6200 7280.9148
80.6300 7347.7254
80.6400 7366.8562
80.6500 7605.4256
80.6600 7493.5002
80.6700 7047.2224
80.6800 7031.1108
80.6900 7112.2510
80.7000 7475.3336
80.7100 7454.2172
80.7200 7473.7402
80.7300 7370.9138
80.7400 6946.6350
80.7500 7437.1126
80.7600 7326.6626
80.7700 7066.9140
80.7800 6751.5840
80.7900 7292.2876
80.8000 7035.5396
80.8100 7550.1742
80.8200 7092.2714
80.8300 7083.7394
80.8400 7244.9716
80.8500 7328.1364
80.8600 7429.4702
80.8700 7359.1578
80.8800 7362.5074
80.8900 7455.1400
80.9000 7252.4088
80.9100 7698.0078
80.9200 7451.8416
80.9300 7289.5906
80.9400 7504.3392
80.9500 7248.6646
80.9600 7322.6220
80.9700 7458.7094
80.9800 7855.8008
80.9900 7670.0180
81.0000 7333.0656
81.0100 7310.2068
81.0200 7640.3272
81.0300 7539.0364
81.0400 7609.1886
81.0500 7516.7050
81.0600 7861.4168
81.0700 7718.5514
81.0800 7946.9580
81.0900 7772.9672
81.1000 7789.6916
81.1100 7783.4586
81.1200 7520.3474
81.1300 7802.4926
81.1400 7835.7382
81.1500 8017.8776
81.1600 7893.7444
81.1700 7902.0500
81.1800 8054.1406
81.1900 8021.0726
81.2000 8175.1604
81.2100 7780.4264
81.2200 7830.2246
81.2300 7877.4284
81.2400 7937.4748
81.2500 7933.0404
81.2600 8430.8780
81.2700 8258.5050
81.2800 8171.3118
81.2900 8402.2184
81.3000 8609.6908
81.3100 8363.5026
81.3200 8316.4234
81.3300 8531.2224
81.3400 8704.1984
81.3500 8371.7408
81.3600 8589.3254
81.3700 8766.4054
81.3800 8620.3296
81.3900 8735.8822
81.4000 8683.7582
81.4100 8476.0832
81.4200 8848.7916
81.4300 8605.6714
81.4400 8666.2492
81.4500 8824.0902
81.4600 8541.1792
81.4700 8651.7774
81.4800 8780.9644
81.4900 8516.5502
81.5000 8667.9500
81.5100 8862.9378
81.5200 9276.2264
81.5300 8706.5600
81.5400 8631.2036
81.5500 8454.0430
81.5600 8694.6428
81.5700 8898.6376
81.5800 8744.6028
81.5900 8500.6266
81.6000 8553.2446
81.6100 8960.8814
81.6200 8723.1396
81.6300 8475.4688
81.6400 8490.3784
81.6500 8725.3800
81.6600 8591.7058
81.6700 8648.0224
81.6800 8267.8484
81.6900 8565.3434
81.7000 8395.5876
81.7100 7769.7470
81.7200 8120.1270
81.7300 8128.6052
81.7400 7942.9590
81.7500 8190.8658
81.7600 7692.5188
81.7700 7616.9344
81.7800 7974.3506
81.7900 8238.0160
81.8000 8138.7190
81.8100 7844.8982
81.8200 7777.3592
81.8300 7807.2022
81.8400 7930.3238
81.8500 7605.6778
81.8600 7867.2364
81.8700 7555.3264
81.8800 7502.1948
81.8900 7494.0332
81.9000 7439.0372
81.9100 7620.9342
81.9200 7912.8288
81.9300 7924.6948
81.9400 7498.1006
81.9500 7451.7146
81.9600 7586.7122
81.9700 7848.3382
81.9800 7484.9446
81.9900 7455.5290
82.0000 7571.1702
82.0100 7461.9556
82.0200 7632.5170
82.0300 7317.7474
82.0400 7603.0452
82.0500 7598.2112
82.0600 7497.1940
82.0700 7282.5904
82.0800 7615.8732
82.0900 7743.1852
82.1000 7602.4716
82.1100 7804.6314
82.1200 7808.7736
82.1300 7513.0746
82.1400 7364.4230
82.1500 7719.8494
82.1600 7036.3378
82.1700 7019.9382
82.1800 7449.9520
82.1900 7362.1062
82.2000 7294.5800
82.2100 7290.4020
82.2200 7292.1036
82.2300 7490.7560
82.2400 7290.4996
82.2500 7280.5590
82.2600 7149.1830
82.2700 7337.4382
82.2800 7306.3492
82.2900 7340.4696
82.3000 7916.4860
82.3100 7467.9386
82.3200 7606.2118
82.3300 7465.1318
82.3400 7266.5202
82.3500 7680.1220
82.3600 7415.0878
82.3700 7334.7592
82.3800 7621.5764
82.3900 7188.8452
82.4000 7392.7180
82.4100 7302.8362
82.4200 7456.5576
82.4300 7436.3688
82.4400 7647.0800
82.4500 7359.4986
82.4600 7092.7068
82.4700 7426.4836
82.4800 7539.7046
82.4900 7626.1744
82.5000 7387.1500
82.5100 7663.0200
82.5200 7776.7456
82.5300 7127.3120
82.5400 7630.3898
82.5500 7443.0184
82.5600 7559.3408
82.5700 7623.6140
82.5800 7422.3950
82.5900 7104.1854
82.6000 7268.9226
82.6100 7221.5072
82.6200 7390.8390
82.6300 7545.4102
82.6400 7071.7302
82.6500 7122.0712
82.6600 7299.3920
82.6700 7428.7386
82.6800 7449.5028
82.6900 7415.8350
82.7000 7405.5322
82.7100 7299.6794
82.7200 7234.8860
82.7300 7621.8562
82.7400 7166.3452
82.7500 7374.8738
82.7600 7538.0420
82.7700 7429.9854
82.7800 7363.5376
82.7900 7070.9522
82.8000 7153.7638
82.8100 7207.8972
82.8200 7309.3050
82.8300 7450.0268
82.8400 7290.7096
82.8500 7173.9112
82.8600 7063.9672
82.8700 7336.8522
82.8800 7405.7202
82.8900 7425.7032
82.9000 7384.1406
82.9100 7413.1518
82.9200 7383.7858
82.9300 7179.6858
82.9400 7648.9486
82.9500 7255.6364
82.9600 7222.3348
82.9700 7389.9138
82.9800 7339.0022
82.9900 7361.7464
83.0000 7346.7562
83.0100 7199.3546
83.0200 7599.7958
83.0300 7485.7926
83.0400 7337.0712
83.0500 7544.9324
83.0600 7362.0898
83.0700 7460.5672
83.0800 7396.1988
83.0900 7103.2512
83.1000 7501.4176
83.1100 7604.5704
83.1200 7027.2006
83.1300 7261.6968
83.1400 7540.3076
83.1500 7219.5198
83.1600 7463.5686
83.1700 7150.8228
83.1800 7721.2508
83.1900 7412.5162
83.2000 7722.2600
83.2100 7477.0468
83.2200 7397.9468
83.2300 7264.4084
83.2400 7091.6838
83.2500 7236.0848
83.2600 7314.1072
83.2700 7605.4582
83.2800 7706.9034
83.2900 6944.7160
83.3000 7678.4668
83.3100 7667.8230
83.3200 7509.1560
83.3300 7802.0704
83.3400 7417.5162
83.3500 7564.4384
83.3600 7376.1036
83.3700 7590.3426
83.3800 7175.9952
83.3900 7394.0616
83.4000 7664.9454
83.4100 7662.6498
83.4200 7450.3654
83.4300 6894.1822
83.4400 7224.1724
83.4500 7251.1654
83.4600 7621.0206
83.4700 7064.2862
83.4800 7306.8514
83.4900 7619.6574
83.5000 7481.5788
83.5100 7372.4544
83.5200 7344.8518
83.5300 7552.5180
83.5400 7307.4512
83.5500 7448.9860
83.5600 7178.5588
83.5700 7099.3246
83.5800 7437.6246
83.5900 7314.2114
83.6000 7483.3382
83.6100 7346.6830
83.6200 7061.3720
83.6300 7065.6062
83.6400 7113.3838
83.6500 7543.2788
83.6600 7364.8396
83.6700 7691.0588
83.6800 7679.3904
83.6900 7437.7498
83.7000 7236.2346
83.7100 7436.3736
83.7200 7451.8554
83.7300 7323.9664
83.7400 7193.4724
83.7500 7376.9442
83.7600 6997.0214
83.7700 7258.9876
83.7800 7444.7192
83.7900 7533.9314
83.8000 7423.1046
83.8100 7508.9462
83.8200 7239.8584
83.8300 6892.0988
83.8400 6919.7404
83.8500 7318.6280
83.8600 7040.9408
83.8700 6822.6730
83.8800 7063.3806
83.8900 7502.0068
83.9000 7346.2540
83.9100 7603.0346
83.9200 7597.5130
83.9300 7580.5966
83.9400 7464.5256
83.9500 7149.9698
83.9600 6998.3626
83.9700 6939.2684
83.9800 7318.1006
83.9900 7248.0616
84.0000 7319.5842
84.0100 7450.7056
84.0200 7050.1530
84.0300 7006.3290
84.0400 7080.2132
84.0500 7326.6252
84.0600 6804.0316
84.0700 7127.9744
84.0800 7203.1974
84.0900 6975.9424
84.1000 6927.6286
84.1100 7461.5022
84.1200 7591.2940
84.1300 7387.3754
84.1400 7323.3480
84.1500 7258.4798
84.1600 7225.6910
84.1700 7491.4006
84.1800 7478.7370
84.1900 7378.0086
84.2000 7235.0252
84.2100 7209.0520
84.2200 7424.4776
84.2300 7310.1530
84.2400 7306.5674
84.2500 6934.2310
84.2600 7582.5602
84.2700 7053.1950
84.2800 7195.5314
84.2900 7329.9594
84.3000 7411.0188
84.3100 7299.7932
84.3200 7547.4520
84.3300 7293.1568
84.3400 7542.6408
84.3500 7282.5692
84.3600 7574.2448
84.3700 7188.5336
84.3800 7049.8764
84.3900 7083.7956
84.4000 7208.6580
84.4100 7395.9896
84.4200 7494.0112
84.4300 7396.8246
84.4400 7696.9612
84.4500 7640.3084
84.4600 7592.8980
84.4700 7396.1906
84.4800 7388.3756
84.4900 7263.2740
84.5000 7461.7074
84.5100 7373.5938
84.5200 7231.1092
84.5300 7189.1878
84.5400 7119.2236
84.5500 7195.7634
84.5600 7328.6548
84.5700 7124.6558
84.5800 7090.7552
84.5900 7197.7034
84.6000 7145.0642
84.6100 7239.1000
84.6200 7285.7894
84.6300 7178.9934
84.6400 7557.9680
84.6500 7224.5564
84.6600 7148.6500
84.6700 7640.3190
84.6800 8021.5494
84.6900 7596.2630
84.7000 7329.0120
84.7100 7324.4214
84.7200 7430.8894
84.7300 6980.4858
84.7400 7198.1470
84.7500 7307.2518
84.7600 7327.9338
84.7700 7626.2802
84.7800 7562.6164
84.7900 7368.0672
84.8000 7116.7228
84.8100 7268.0094
84.8200 7219.5712
84.8300 7508.2324
84.8400 7543.2080
84.8500 7172.0004
84.8600 7180.6202
84.8700 7815.4574
84.8800 7578.3724
84.8900 7384.3344
84.9000 7312.0328
84.9100 7573.9934
84.9200 7181.5170
84.9300 7577.1078
84.9400 7428.1306
84.9500 7372.5708
84.9600 7496.0636
84.9700 7309.4254
84.9800 7535.3638
84.9900 7477.9330
85.0000 7584.9968
85.0100 7268.0810
85.0200 7607.2958
85.0300 7387.8816
85.0400 7545.9724
85.0500 7127.9224
85.0600 6954.8120
85.0700 7329.0706
85.0800 7423.5872
85.0900 7446.5796
85.1000 7442.7018
85.1100 7427.8914
85.1200 7512.6586
85.1300 7337.8524
85.1400 7616.7708
85.1500 7771.1264
85.1600 7592.7092
85.1700 7090.0488
85.1800 7088.8850
85.1900 7279.3400
85.2000 7245.2408
85.2100 7534.4368
85.2200 7421.1018
85.2300 7526.5738
85.2400 7165.4550
85.2500 7422.2908
85.2600 7213.2422
85.2700 7578.1104
85.2800 7514.8820
85.2900 7732.5284
85.3000 7438.0990
85.3100 8135.6234
85.3200 7661.6088
85.3300 7632.8264
85.3400 7457.6514
85.3500 7272.9094
85.3600 7488.1014
85.3700 7457.5960
85.3800 7492.2990
85.3900 7503.9290
85.4000 7360.0196
85.4100 7597.6822
85.4200 7474.0372
85.4300 7489.6550
85.4400 7619.5720
85.4500 7663.9306
85.4600 7968.2398
85.4700 7827.1402
85.4800 7590.9236
85.4900 7316.6414
85.5000 7904.8438
85.5100 7667.7238
85.5200 7992.5586
85.5300 7472.4218
85.5400 7993.9136
85.5500 8133.1478
85.5600 7958.1470
85.5700 8136.2882
85.5800 7888.7996
85.5900 8217.0336
85.6000 7820.9960
85.6100 8064.1520
85.6200 8101.6186
85.6300 8278.3976
85.6400 8102.1208
85.6500 8189.9772
85.6600 8225.9262
85.6700 8036.1198
85.6800 8081.2208
85.6900 8466.6772
85.7000 8564.5476
85.7100 8588.2552
85.7200 8423.6312
85.7300 8566.3046
85.7400 9211.2874
85.7500 9088.5424
85.7600 8977.6114
85.7700 8862.2828
85.7800 9143.7540
85.7900 9264.5264
85.8000 9052.6994
85.8100 9231.3444
85.8200 9559.5972
85.8300 9380.5664
85.8400 9551.8774
85.8500 9420.5730
85.8600 9134.2408
85.8700 9704.3334
85.8800 9671.3908
85.8900 9452.8588
85.9000 9552.6742
85.9100 9470.6454
85.9200 9634.1618
85.9300 9496.6260
85.9400 9943.5100
85.9500 9388.7110
85.9600 9561.8718
85.9700 9506.0864
85.9800 9525.0756
85.9900 9572.6514
86.0000 9723.3830
86.0100 9597.8142
86.0200 9532.4218
86.0300 9618.7280
86.0400 9551.9156
86.0500 9619.0040
86.0600 9769.4100
86.0700 9604.7810
86.0800 9466.2354
86.0900 9490.4508
86.1000 9075.5380
86.1100 9016.3460
86.1200 9371.3720
86.1300 9567.0060
86.1400 9361.2874
86.1500 9303.3684
86.1600 9121.2590
86.1700 9315.8894
86.1800 9170.8186
86.1900 8968.3790
86.2000 8815.3044
86.2100 8670.6836
86.2200 8854.0422
86.2300 8749.4296
86.2400 8630.9790
86.2500 8468.5734
86.2600 8984.4254
86.2700 8427.1892
86.2800 8712.9834
86.2900 8295.2612
86.3000 8296.3924
86.3100 8205.3344
86.3200 8338.9266
86.3300 8495.1766
86.3400 7837.2566
86.3500 8304.7900
86.3600 8183.2014
86.3700 8153.1926
86.3800 8177.7156
86.3900 8054.9332
86.4000 8150.9864
86.4100 7706.8400
86.4200 7995.8276
86.4300 7873.8916
86.4400 7524.3108
86.4500 7706.5950
86.4600 8158.4270
86.4700 8257.8784
86.4800 8159.8690
86.4900 7651.5764
86.5000 7729.5418
86.5100 7636.1630
86.5200 7524.0178
86.5300 7643.3382
86.5400 7701.6700
86.5500 7347.2014
86.5600 7257.4560
86.5700 7176.8262
86.5800 7777.6000
86.5900 7581.4860
86.6000 7585.0512
86.6100 7510.0724
86.6200 7381.0636
86.6300 7071.4828
86.6400 7370.9122
86.6500 7228.4928
86.6600 7403.0640
86.6700 7485.3124
86.6800 7445.4720
86.6900 7348.2234
86.7000 7458.3912
86.7100 7460.4052
86.7200 7333.4114
86.7300 7472.8638
86.7400 7167.9394
86.7500 7006.4640
86.7600 7752.1998
86.7700 7707.8052
86.7800 7172.8922
86.7900 7565.4940
86.8000 7209.3806
86.8100 7326.5706
86.8200 7340.1620
86.8300 7348.4180
86.8400 7582.1280
86.8500 7304.7372
86.8600 7688.9502
86.8700 7344.9952
86.8800 7237.8768
86.8900 7378.1804
86.9000 7573.7296
86.9100 7206.4234
86.9200 7128.5742
86.9300 7798.1902
86.9400 7155.7918
86.9500 7343.4790
86.9600 7266.0604
86.9700 7262.8980
86.9800 7441.3892
86.9900 7380.5070
87.0000 7380.2694
87.0100 7523.5474
87.0200 7385.9374
87.0300 7509.5614
87.0400 7490.7430
87.0500 7303.0834
87.0600 7215.4070
87.0700 7607.6814
87.0800 7312.7612
87.0900 7223.8428
87.1000 7240.1278
87.1100 7763.9884
87.1200 7427.0068
87.1300 7551.7236
87.1400 7276.8212
87.1500 7618.0916
87.1600 7289.5476
87.1700 7617.4072
87.1800 7602.9874
87.1900 7653.7964
87.2000 7379.4604
87.2100 7512.5390
87.2200 7451.1768
87.2300 7383.7768
87.2400 7167.4780
87.2500 7251.2614
87.2600 7570.7234
87.2700 7279.1764
87.2800 7340.2312
87.2900 7325.9122
87.3000 7455.6282
87.3100 7584.7314
87.3200 7458.1258
87.3300 7469.2154
87.3400 7128.6328
87.3500 7527.0540
87.3600 7553.5108
87.3700 7450.5916
87.3800 7320.7446
87.3900 7534.4532
87.4000 7085.7626
87.4100 7029.0178
87.4200 7681.7066
87.4300 7427.6970
87.4400 7155.8456
87.4500 7695.4778
87.4600 7252.5056
87.4700 7010.5232
87.4800 7704.7184
87.4900 7259.3238
87.5000 7532.2290
87.5100 7338.6386
87.5200 7264.9210
87.5300 7346.1808
87.5400 7263.5490
87.5500 7338.9404
87.5600 7715.5176
87.5700 7376.7122
87.5800 7280.1978
87.5900 7148.6824
87.6000 7479.6306
87.6100 7154.9602
87.6200 7170.9042
87.6300 7628.7134
87.6400 7552.7962
87.6500 7210.8814
87.6600 7614.2154
87.6700 7523.2512
87.6800 7201.8188
87.6900 7251.9426
87.7000 7561.9760
87.7100 7366.7740
87.7200 6943.7916
87.7300 7464.7584
87.7400 7375.0782
87.7500 7620.8536
87.7600 7267.1224
87.7700 7506.8490
87.7800 6964.6476
87.7900 7244.9870
87.8000 7184.2766
87.8100 7433.5336
87.8200 6947.3876
87.8300 7040.2864
87.8400 7221.0678
87.8500 7480.5932
87.8600 7226.3778
87.8700 7227.6920
87.8800 7483.6368
87.8900 7986.7294
87.9000 7366.4518
87.9100 7425.5144
87.9200 7233.4358
87.9300 7327.3194
87.9400 7344.2814
87.9500 7328.6508
87.9600 7115.4078
87.9700 7105.9668
87.9800 7093.0030
87.9900 7439.7200
88.0000 7565.1814
88.0100 7628.5904
88.0200 7365.2442
88.0300 7140.3964
88.0400 7584.8690
88.0500 7575.2750
88.0600 7457.0450
88.0700 7377.2574
88.0800 7369.1178
88.0900 7498.0908
88.1000 7091.6464
88.1100 7190.7666
88.1200 7226.9352
88.1300 7466.9768
88.1400 7423.1542
88.1500 7130.1278
88.1600 7120.3222
88.1700 7458.1616
88.1800 7479.9960
88.1900 7264.0910
88.2000 7358.8550
88.2100 7412.7914
88.2200 7278.6898
88.2300 7177.3982
88.2400 7318.5888
88.2500 7402.4268
88.2600 7420.9644
88.2700 7515.1286
88.2800 7332.9810
88.2900 7363.9054
88.3000 7344.9340
88.3100 7008.7792
88.3200 7154.1430
88.3300 7374.8470
88.3400 7198.5018
88.3500 7381.0660
88.3600 7215.5648
88.3700 7142.9524
88.3800 7719.5646
88.3900 7626.8856
88.4000 7410.7714
88.4100 7484.6070
88.4200 7563.0486
88.4300 7038.6866
88.4400 7184.1796
88.4500 7141.2988
88.4600 7329.8804
88.4700 7725.2018
88.4800 7769.0030
88.4900 7241.8522
88.5000 6800.6286
88.5100 7158.7094
88.5200 7164.6338
88.5300 7152.1460
88.5400 7314.6712
88.5500 7166.6700
88.5600 6915.7430
88.5700 7150.9342
88.5800 7413.1324
88.5900 7493.6580
88.6000 7587.1452
88.6100 7258.5612
88.6200 7414.6150
88.6300 7191.6260
88.6400 7251.7408
88.6500 7449.5582
88.6600 7481.4444
88.6700 7334.4686
88.6800 7375.1464
88.6900 7360.9172
88.7000 7409.8658
88.7100 7295.8480
88.7200 7201.3542
88.7300 7253.2544
88.7400 7449.7078
88.7500 7696.2980
88.7600 7237.7262
88.7700 7109.0356
88.7800 7368.5026
88.7900 7038.4734
88.8000 7288.4830
88.8100 7360.6828
88.8200 7202.5708
88.8300 7439.4490
88.8400 7691.4568
88.8500 7137.3258
88.8600 7365.4582
88.8700 7413.2292
88.8800 7117.6986
88.8900 7540.4378
88.9000 7477.8124
88.9100 7543.4652
88.9200 7373.8624
88.9300 7242.4366
88.9400 7485.1978
88.9500 7299.7860
88.9600 7277.7164
88.9700 7537.8370
88.9800 7405.8960
88.9900 7149.9984
89.0000 7319.0682
89.0100 7529.2350
89.0200 7008.5596
89.0300 7230.1148
89.0400 7451.0938
89.0500 7507.5342
89.0600 7199.5328
89.0700 7397.9208
89.0800 7520.8414
89.0900 7752.9574
89.1000 7401.8986
89.1100 7501.7138
89.1200 7299.7420
89.1300 7195.1840
89.1400 7166.5592
89.1500 7526.9296
89.1600 7288.8574
89.1700 7119.2684
89.1800 7838.3440
89.1900 7072.7792
89.2000 7138.1070
89.2100 7174.0356
89.2200 7274.5214
89.2300 7246.9646
89.2400 7302.1484
89.2500 7176.7546
89.2600 7655.8544
89.2700 7057.2998
89.2800 7147.8198
89.2900 7478.3570
89.3000 7572.3104
89.3100 7249.5084
89.3200 7637.8434
89.3300 7177.9574
89.3400 7661.4616
89.3500 7608.8134
89.3600 7362.2624
89.3700 7153.3886
89.3800 7459.1732
89.3900 7296.3004
89.4000 6717.7844
89.4100 7391.2118
89.4200 7474.0512
89.4300 7791.9514
89.4400 7314.4832
89.4500 7131.9506
89.4600 7124.7022
89.4700 7302.3112
89.4800 7611.2524
89.4900 7576.7106
89.5000 7092.9916
89.5100 7178.0216
89.5200 7623.0038
89.5300 7390.1302
89.5400 7421.4974
89.5500 7569.8136
89.5600 7548.3204
89.5700 7356.4738
89.5800 7840.2084
89.5900 7190.1994
89.6000 7494.2822
89.6100 7446.9434
89.6200 7152.3910
89.6300 7472.1558
89.6400 7449.7900
89.6500 6986.1736
89.6600 7389.3554
89.6700 7479.8690
89.6800 7808.7566
89.6900 7564.5272
89.7000 7211.3354
89.7100 7317.3698
89.7200 7632.9078
89.7300 7754.8600
89.7400 7845.4606
89.7500 7741.6472
89.7600 7526.9612
89.7700 7998.4252
89.7800 7314.4734
89.7900 7672.5854
89.8000 7394.1162
89.8100 7634.3352
89.8200 7443.7330
89.8300 7381.4176
89.8400 7276.1988
89.8500 7264.2302
89.8600 7302.7710
89.8700 7256.2858
89.8800 7341.3680
89.8900 6869.1878
89.9000 7214.2872
89.9100 7794.4410
89.9200 7673.5474
89.9300 7641.3746
89.9400 7432.1420
89.9500 7489.6680
89.9600 7194.0324
89.9700 7192.6522
89.9800 7301.5682
89.9900 7592.5594
90.0000 7568.9486
